MR,ML,SU,Microphone,Eye,ECG,PressureSensor
0.060487,-0.016969,0.031892,-0.00042522,0.0026094,0.2341,
0.65835,-0.1846,0.34712,-0.00043261,0.0025676,0.23408,
3.2155,-0.90096,1.6954,-0.00043011,0.0025097,0.2341,
9.2097,-2.5777,4.8561,-0.00041878,0.0025014,0.23411,
16.877,-4.7153,8.8994,-0.00043559,0.0025399,0.23409,
20.053,-5.585,10.578,-0.00042987,0.002579,0.23408,
14.632,-4.0466,7.7277,-0.00041831,0.0025864,0.23409,
5.5815,-1.5119,2.9698,-0.00044525,0.0025852,0.2341,
1.4819,-0.38809,0.81882,-0.00042427,0.0025944,0.2341,
2.5988,-0.72609,1.4013,-0.0004257,0.0026076,0.2341,
1.9858,-0.55911,1.0527,-0.00044656,0.0026034,0.23407,
-2.3739,0.66517,-1.2726,-0.00043714,0.0025966,0.23409,
-5.5139,1.53,-2.9378,-0.00042939,0.0026034,0.23413,
-5.2922,1.4394,-2.8161,-0.00043654,0.0026022,0.23412,
-5.295,1.4262,-2.8136,-0.00042641,0.0025744,0.23409,
-7.404,2.0258,-3.9273,-0.00042248,0.002538,0.23406,
-9.0686,2.5049,-4.8044,-0.00043344,0.0025091,0.23405,
-8.8323,2.4489,-4.6717,-0.00041759,0.0025089,0.23404,
-8.5803,2.405,-4.5245,-0.0004288,0.0025178,0.23405,
-9.4566,2.7008,-4.9672,-0.00043726,0.0025222,0.23405,
-10.111,2.9284,-5.2904,-0.00042963,0.0025258,0.23404,
-9.7078,2.8253,-5.0597,-0.00042164,0.0025327,0.23403,
-9.2559,2.6875,-4.8113,-0.00042641,0.0025202,0.23397,
-9.396,2.7267,-4.8828,-0.00041807,0.0025153,0.23393,
-9.4054,2.7449,-4.8965,-0.00042939,0.002526,0.23395,
-8.8288,2.5939,-4.6175,-0.00042844,0.0025103,0.23394,
-8.2162,2.4148,-4.3331,-0.00042522,0.0025057,0.2339,
-7.9212,2.3077,-4.2216,-0.00041163,0.0025104,0.2339,
-7.5523,2.1624,-4.0704,-0.00041258,0.0024945,0.23394,
-6.8615,1.9076,-3.7379,-0.00041854,0.002474,0.23402,
-6.1532,1.6341,-3.3679,-0.0004065,0.0024757,0.23405,
-5.6296,1.4099,-3.0661,-0.00041902,0.0024999,0.23396,
-5.0825,1.1898,-2.7472,-0.00041008,0.0024959,0.23391,
-4.3716,0.95149,-2.3567,-0.00040901,0.0025023,0.23393,
-3.6557,0.75152,-1.9742,-0.00041735,0.002544,0.23389,
-3.0449,0.61363,-1.6559,-0.00039923,0.0025867,0.23387,
-2.4304,0.47847,-1.3585,-0.00040364,0.0026146,0.23388,
-1.739,0.29509,-1.0357,-0.00041103,0.0026087,0.23389,
-1.0582,0.085403,-0.68805,-0.00039709,0.0025753,0.23391,
-0.44948,-0.10005,-0.32052,-0.00039256,0.0025393,0.23395,
0.14573,-0.23938,0.064568,-0.00039661,0.002519,0.23395,
0.76804,-0.34224,0.44137,-0.00038624,0.0025204,0.2339,
1.3691,-0.43168,0.78195,-0.00039065,0.0025272,0.23388,
1.9118,-0.53266,1.0883,-0.00039005,0.0025254,0.23391,
2.4255,-0.65667,1.3719,-0.00038838,0.0025187,0.23395,
2.9363,-0.79089,1.6298,-0.00038326,0.0025074,0.23395,
3.4252,-0.91306,1.8672,-0.00038028,0.0024918,0.23389,
3.8727,-1.0161,2.1095,-0.00039721,0.0024592,0.23386,
4.2862,-1.1094,2.3646,-0.0003897,0.0024419,0.23384,
4.6706,-1.1996,2.6007,-0.00038028,0.0024372,0.23386,
5.0159,-1.2825,2.7845,-0.00037873,0.0024544,0.23391,
5.3227,-1.3563,2.9181,-0.0003624,0.0024588,0.23393,
5.6058,-1.4308,3.0221,-0.00036275,0.0024571,0.23388,
5.8685,-1.5115,3.1076,-0.00037479,0.0024712,0.2338,
6.0976,-1.5852,3.1816,-0.00035965,0.0024725,0.23378,
6.288,-1.6354,3.2612,-0.00034857,0.0024517,0.2338,
6.4508,-1.6668,3.3608,-0.00035787,0.0024291,0.23377,
6.5939,-1.6982,3.4766,-0.00035548,0.002401,0.23373,
6.7115,-1.7334,3.5943,-0.0003444,0.0023528,0.23371,
6.798,-1.7552,3.7007,-0.0003432,0.0023084,0.23371,
6.8567,-1.7533,3.7771,-0.00034475,0.002274,0.23372,
6.8891,-1.7403,3.8025,-0.00033689,0.0022501,0.23372,
6.8876,-1.7342,3.7777,-0.00034285,0.0022662,0.23374,
6.8472,-1.7406,3.7295,-0.00031853,0.002301,0.23373,
6.7762,-1.7566,3.6716,-0.00032747,0.0022963,0.23371,
6.6872,-1.7779,3.5831,-0.00032306,0.002304,0.23368,
6.5827,-1.7935,3.4467,-0.00031161,0.0023209,0.23366,
6.457,-1.7871,3.2906,-0.00032735,0.0023288,0.23364,
6.3086,-1.7562,3.165,-0.0003022,0.0023369,0.23365,
6.1429,-1.7184,3.0851,-0.00030172,0.0023496,0.23365,
5.9649,-1.6918,3.0221,-0.00031602,0.0023632,0.23365,
5.7734,-1.6748,2.9459,-0.00030184,0.0023592,0.23366,
5.5656,-1.6511,2.8551,-0.00029635,0.0023619,0.23368,
5.3425,-1.6085,2.7612,-0.00030649,0.0023757,0.23368,
5.1085,-1.5484,2.6616,-0.00030231,0.0023917,0.23368,
4.8661,-1.4798,2.5398,-0.000301,0.0023983,0.23371,
4.6136,-1.408,2.3868,-0.00028801,0.0024117,0.23372,
4.3481,-1.3299,2.2149,-0.0002861,0.0024149,0.2337,
4.0703,-1.2393,2.0489,-0.00028872,0.0024345,0.23372,
3.783,-1.1343,1.9046,-0.00028515,0.0024562,0.23373,
3.4863,-1.0213,1.7772,-0.00026429,0.002458,0.23374,
3.1767,-0.90979,1.6497,-0.00026453,0.0024365,0.23376,
2.8553,-0.80574,1.5128,-0.00027859,0.0024258,0.2338,
2.5325,-0.70896,1.3697,-0.00027609,0.0024087,0.23383,
2.2174,-0.61769,1.2213,-0.00026059,0.0023843,0.23385,
1.906,-0.53097,1.0571,-0.00025952,0.0023513,0.23387,
1.5875,-0.446,0.86996,-0.00026846,0.0023155,0.23388,
1.262,-0.35827,0.67342,-0.00026155,0.0023012,0.23386,
0.9396,-0.26672,0.4901,-0.00026393,0.0022933,0.23384,
0.6238,-0.17395,0.32516,-0.00027287,0.0022835,0.23384,
0.30968,-0.080493,0.16469,-0.00024629,0.0022794,0.23387,
-0.0031907,0.015115,-0.0011609,-0.00023353,0.0022931,0.23391,
-0.30966,0.10979,-0.16768,-0.00026691,0.0022932,0.23394,
-0.60968,0.19646,-0.32781,-0.00025475,0.0022842,0.23397,
-0.90724,0.27359,-0.48226,-0.00024164,0.0022788,0.23399,
-1.2011,0.3488,-0.63615,-0.00024676,0.0022935,0.23398,
-1.487,0.42972,-0.79412,-0.00023949,0.0022963,0.23395,
-1.7646,0.5139,-0.95801,-0.00023937,0.0022804,0.23394,
-2.0333,0.59194,-1.1223,-0.00022781,0.0022736,0.23399,
-2.2877,0.66009,-1.2729,-0.00024247,0.0022662,0.23398,
-2.5271,0.72459,-1.399,-0.00023854,0.0022588,0.23391,
-2.7599,0.79257,-1.5076,-0.00022769,0.0022565,0.23387,
-2.9928,0.86445,-1.6155,-0.00024664,0.0022743,0.23388,
-3.2194,0.93665,-1.7231,-0.00022352,0.0023326,0.23388,
-3.4299,1.0037,-1.8121,-0.00022352,0.0023533,0.23392,
-3.6249,1.056,-1.8778,-0.00024414,0.0023447,0.23397,
-3.8112,1.0868,-1.9464,-0.00021613,0.0023419,0.23398,
-3.9895,1.1041,-2.0455,-0.00021982,0.0023277,0.23397,
-4.1546,1.127,-2.1671,-0.00022221,0.0023441,0.23399,
-4.3058,1.1666,-2.277,-0.00021124,0.0023652,0.234,
-4.4476,1.2179,-2.3551,-0.00022757,0.0023657,0.23397,
-4.5791,1.2698,-2.4144,-0.00021303,0.002354,0.23394,
-4.6948,1.3149,-2.4774,-0.00021923,0.0023476,0.2339,
-4.7963,1.3497,-2.544,-0.0002358,0.0023632,0.23386,
-4.891,1.372,-2.5964,-0.00022388,0.0023757,0.23389,
-4.9779,1.3843,-2.6325,-0.00022197,0.0023817,0.23392,
-5.0489,1.3951,-2.6741,-0.00023878,0.0023698,0.23393,
-5.1037,1.4121,-2.7329,-0.0002284,0.0023756,0.2339,
-5.1516,1.4333,-2.7875,-0.00022137,0.0023649,0.23385,
-5.1949,1.4505,-2.8065,-0.00023055,0.0023527,0.23383,
-5.2243,1.4601,-2.7847,-0.00023293,0.0023543,0.23388,
-5.2339,1.4639,-2.7457,-0.00022662,0.0023581,0.2339,
-5.229,1.46,-2.7187,-0.00022733,0.0023396,0.23389,
-5.217,1.4436,-2.7168,-0.00023842,0.0023154,0.23388,
-5.1988,1.4146,-2.7269,-0.00023425,0.0023173,0.23388,
-5.173,1.3782,-2.7192,-0.00023162,0.0023388,0.23387,
-5.1398,1.3401,-2.6824,-0.00023007,0.0023474,0.23386,
-5.0978,1.303,-2.6393,-0.00024056,0.0023321,0.23385,
-5.0417,1.2676,-2.6107,-0.00025237,0.0023067,0.23385,
-4.9684,1.236,-2.5804,-0.00024545,0.0022994,0.23387,
-4.8817,1.214,-2.5249,-0.00023651,0.002288,0.23389,
-4.7884,1.207,-2.4571,-0.00024664,0.0022973,0.23391,
-4.6905,1.2092,-2.4054,-0.00025153,0.0022957,0.23393,
-4.5868,1.2065,-2.3671,-0.00024819,0.0022947,0.23394,
-4.4775,1.1915,-2.3182,-0.00025415,0.0022848,0.23395,
-4.3642,1.1695,-2.2563,-0.00024688,0.0022922,0.23397,
-4.2436,1.1459,-2.1994,-0.00024676,0.0022953,0.23394,
-4.1075,1.1201,-2.1515,-0.00026822,0.0022993,0.23394,
-3.9541,1.0915,-2.0961,-0.00025487,0.002324,0.23395,
-3.7934,1.0611,-2.0198,-0.00025475,0.0023782,0.23392,
-3.6367,1.0279,-1.924,-0.00027966,0.0024166,0.23387,
-3.4828,0.99223,-1.8179,-0.00027943,0.0024427,0.23384,
-3.3222,0.95645,-1.7129,-0.00026608,0.0024362,0.23386,
-3.1523,0.91684,-1.6177,-0.00027537,0.0023847,0.23386,
-2.9804,0.86759,-1.5297,-0.00027764,0.0023352,0.23386,
-2.8105,0.81667,-1.438,-0.00028169,0.0023059,0.23386,
-2.6371,0.77916,-1.3399,-0.00028384,0.0022975,0.23384,
-2.454,0.74992,-1.2456,-0.00027621,0.002288,0.2338,
-2.266,0.705,-1.161,-0.00027049,0.0022889,0.23375,
-2.0832,0.63672,-1.0765,-0.00028646,0.0023032,0.23372,
-1.9057,0.56476,-0.98272,-0.00028658,0.0023158,0.23372,
-1.7231,0.50564,-0.88505,-0.00028634,0.0023355,0.23374,
-1.5318,0.45414,-0.79251,-0.00029838,0.0023507,0.23373,
-1.342,0.40051,-0.70455,-0.0002861,0.0023661,0.23371,
-1.1611,0.3431,-0.61826,-0.00029218,0.0023738,0.23367,
-0.9808,0.27913,-0.53502,-0.00030982,0.002376,0.23363,
-0.79072,0.20601,-0.45066,-0.00029588,0.0023612,0.23364,
-0.59586,0.13622,-0.35344,-0.00029278,0.0023381,0.23369,
-0.40719,0.089223,-0.24282,-0.00032675,0.0023254,0.23367,
-0.22326,0.063466,-0.13673,-0.0003202,0.0023565,0.23362,
-0.034629,0.033726,-0.049037,-0.00029612,0.0024335,0.23365,
0.15878,-0.018493,0.028451,-0.00032294,0.002471,0.23367,
0.34822,-0.084611,0.11218,-0.00033402,0.0024596,0.23367,
0.52996,-0.14343,0.20713,-0.00032163,0.0024931,0.23366,
0.70754,-0.18686,0.30922,-0.00032806,0.0025185,0.23365,
0.88336,-0.22563,0.41612,-0.00033355,0.0025034,0.23364,
1.0571,-0.27306,0.52698,-0.00032806,0.0024785,0.23363,
1.2282,-0.32875,0.6382,-0.0003432,0.0024614,0.23361,
1.3943,-0.38058,0.74435,-0.00034654,0.0024433,0.23358,
1.5513,-0.42012,0.84009,-0.00034225,0.0023773,0.23354,
1.7018,-0.44975,0.92327,-0.00035501,0.0022922,0.23348,
1.8555,-0.47353,0.9998,-0.00035834,0.002236,0.23344,
2.0163,-0.49025,1.078,-0.00034618,0.0022196,0.23342,
2.1756,-0.50212,1.1538,-0.00034845,0.0022359,0.23341,
2.3223,-0.52072,1.2134,-0.00034583,0.002221,0.23339,
2.4558,-0.55348,1.2567,-0.00034702,0.0021466,0.23336,
2.5832,-0.59165,1.3017,-0.00035512,0.0020946,0.23332,
2.7086,-0.62345,1.3607,-0.00035334,0.0020733,0.23329,
2.8304,-0.65212,1.4272,-0.00035536,0.002069,0.23328,
2.9467,-0.68991,1.4907,-0.00035632,0.0020661,0.2333,
3.057,-0.74164,1.5502,-0.00038385,0.0020498,0.23332,
3.1597,-0.80417,1.6085,-0.00038278,0.0020317,0.23328,
3.2533,-0.87399,1.6702,-0.00030982,0.0020424,0.23325,
3.3401,-0.94727,1.7432,-0.00032198,0.0020641,0.23325,
3.4216,-1.0193,1.8269,-0.00039303,0.0020723,0.23323,
3.4953,-1.0886,1.9016,-0.00040603,0.0020882,0.23319,
3.56,-1.1563,1.9497,-0.0003978,0.0020977,0.23318,
3.621,-1.2211,1.9811,-0.00039577,0.0021167,0.23314,
3.683,-1.2781,2.0173,-0.00037229,0.0021129,0.23309,
3.7441,-1.3202,2.0554,-0.00036657,0.0020911,0.23306,
3.801,-1.3363,2.0754,-0.00037944,0.0020787,0.23305,
3.8544,-1.3188,2.0765,-0.00036085,0.0020813,0.23301,
3.9054,-1.2778,2.0783,-0.00035691,0.0020554,0.23299,
3.9517,-1.2371,2.0842,-0.00034595,0.0020422,0.23302,
3.9894,-1.2085,2.0769,-0.00033855,0.0020303,0.23306,
4.0148,-1.181,2.0548,-0.00036383,0.0020243,0.23305,
4.0267,-1.1429,2.0433,-0.00036991,0.0020242,0.23304,
4.0282,-1.1004,2.0599,-0.00035667,0.0019838,0.23305,
4.0273,-1.0654,2.091,-0.00035489,0.0019804,0.23303,
4.0283,-1.0376,2.1129,-0.00034833,0.0020071,0.23301,
4.026,-1.0087,2.1189,-0.00034857,0.0020058,0.23301,
4.0107,-0.9791,2.116,-0.00037086,0.0019567,0.23303,
3.9785,-0.96114,2.109,-0.00037515,0.001938,0.23303,
3.936,-0.96368,2.0983,-0.00036836,0.0019695,0.23301,
3.8927,-0.97781,2.0877,-0.00035882,0.0020063,0.233,
3.8502,-0.98343,2.0831,-0.00036871,0.0020099,0.23299,
3.8002,-0.96945,2.0812,-0.00037122,0.0019581,0.23297,
3.7362,-0.94104,2.0635,-0.00036168,0.0019444,0.23296,
3.6638,-0.90621,2.0112,-0.00036323,0.0019791,0.23293,
3.5954,-0.86467,1.9246,-0.00035572,0.0020245,0.23293,
3.5346,-0.81671,1.8262,-0.00034237,0.0020649,0.23293,
3.4733,-0.77769,1.7436,-0.00033557,0.0020686,0.23294,
3.4039,-0.77203,1.6899,-0.00033271,0.0020075,0.23293,
3.3272,-0.80454,1.6596,-0.0003345,0.0019476,0.23291,
3.2481,-0.84328,1.6417,-0.00034082,0.0019124,0.23291,
3.1687,-0.84764,1.6309,-0.00033629,0.0019147,0.23295,
3.0865,-0.81614,1.6196,-0.00034177,0.001918,0.23296,
2.999,-0.78644,1.5895,-0.00033796,0.0019462,0.23293,
2.907,-0.78296,1.5278,-0.00032556,0.0019956,0.23291,
2.8131,-0.7912,1.4519,-0.00035238,0.0020354,0.23288,
2.7161,-0.79451,1.3933,-0.00033641,0.0020669,0.23285,
2.612,-0.80322,1.3553,-0.00032616,0.0021065,0.23285,
2.5023,-0.82647,1.3109,-0.00034654,0.0021367,0.23288,
2.3951,-0.84365,1.2446,-0.00031841,0.0020854,0.2329,
2.2944,-0.82779,1.1752,-0.00027382,0.0019782,0.23291,
2.1938,-0.77607,1.1237,-0.0003221,0.001895,0.2329,
2.085,-0.69886,1.0834,-0.00034082,0.0018848,0.2329,
1.9681,-0.6027,1.0369,-0.00030172,0.0019003,0.23289,
1.8472,-0.50453,0.98421,-0.00028491,0.0018582,0.2329,
1.7244,-0.43914,0.93558,-0.00027013,0.0017936,0.23291,
1.6003,-0.4229,0.8888,-0.00027347,0.0017854,0.23288,
1.4761,-0.42247,0.83458,-0.00031042,0.0017999,0.23285,
1.3508,-0.38925,0.77452,-0.00029397,0.0018362,0.23284,
1.2231,-0.32216,0.71511,-0.0002588,0.0018831,0.23283,
1.0957,-0.26777,0.65139,-0.00024962,0.0019084,0.23282,
0.97127,-0.25463,0.57469,-0.00024581,0.0019066,0.23285,
0.84602,-0.25778,0.48991,-0.0002538,0.0018945,0.23288,
0.7157,-0.24009,0.40867,-0.00026357,0.0019078,0.23287,
0.58547,-0.19844,0.33139,-0.00026,0.0019401,0.23281,
0.46224,-0.15047,0.25035,-0.00025713,0.0019588,0.23278,
0.34107,-0.10387,0.16392,-0.00026119,0.0019842,0.23275,
0.21291,-0.06096,0.077404,-0.00025177,0.0020028,0.23274,
0.082035,-0.030292,-0.0030699,-0.0003196,0.002025,0.23277,
-0.040043,-0.012454,-0.071038,-0.00027537,0.0020508,0.2328,
-0.1551,0.0085894,-0.12293,-7.15E-07,0.0020703,0.23282,
-0.27617,0.045976,-0.16468,-0.00048804,0.0020612,0.23281,
-0.4061,0.095417,-0.2071,-0.0005089,0.0020305,0.23281,
-0.53334,0.14581,-0.25455,0.00021565,0.0020053,0.23283,
-0.64953,0.19129,-0.30586,-0.00025344,0.0020186,0.23284,
-0.7581,0.23147,-0.36242,-0.00057125,0.0020347,0.23283,
-0.86486,0.26965,-0.42516,-7.49E-05,0.0020243,0.23281,
-0.9717,0.30948,-0.48817,-6.70E-05,0.0020276,0.23281,
-1.0802,0.34862,-0.54534,-0.00036645,0.002046,0.23281,
-1.1912,0.3802,-0.59949,-0.00023568,0.0020483,0.23281,
-1.3006,0.40193,-0.657,-8.77E-05,0.0020217,0.2328,
-1.4035,0.41766,-0.71795,-0.00029337,0.0019709,0.2328,
-1.5014,0.43127,-0.77774,-0.00031078,0.0019319,0.23279,
-1.5998,0.44591,-0.83366,-0.00011468,0.001917,0.2328,
-1.6985,0.4664,-0.88469,-0.00017881,0.0019132,0.23279,
-1.7903,0.49447,-0.93047,-0.00029099,0.0018996,0.23277,
-1.8727,0.52304,-0.97433,-0.00023162,0.0018914,0.23277,
-1.9529,0.54178,-1.0218,-0.00019193,0.0019041,0.23277,
-2.0372,0.54809,-1.0726,-0.00018704,0.0019292,0.23275,
-2.1236,0.54884,-1.1188,-0.00021923,0.0019484,0.23271,
-2.2076,0.55365,-1.1553,-0.00023019,0.0019571,0.23269,
-2.2891,0.57056,-1.1841,-0.0001682,0.0019567,0.2327,
-2.3674,0.60435,-1.2101,-0.00017488,0.0019444,0.23272,
-2.4373,0.65254,-1.2377,-0.00024128,0.0019602,0.23272,
-2.4957,0.70373,-1.2725,-0.0001725,0.0019892,0.23274,
-2.5476,0.74401,-1.3154,-0.00013411,0.0019926,0.23275,
-2.5978,0.76635,-1.3573,-0.00022233,0.0019847,0.23276,
-2.6452,0.77457,-1.3894,-0.00019979,0.0019727,0.23272,
-2.689,0.77776,-1.4156,-0.00013304,0.0019745,0.2327,
-2.7314,0.77956,-1.4455,-0.00019801,0.0019857,0.23271,
-2.7723,0.77535,-1.4806,-0.00021207,0.0019728,0.23271,
-2.8076,0.76325,-1.5159,-0.0001781,0.0019633,0.2327,
-2.8362,0.75212,-1.5475,-0.00018823,0.0019375,0.23268,
-2.8619,0.75272,-1.5711,-0.00019217,0.0019065,0.23267,
-2.8862,0.76616,-1.5794,-0.00018442,0.0019089,0.23267,
-2.9067,0.78558,-1.5692,-0.00017774,0.0019065,0.23271,
-2.9226,0.80308,-1.5492,-0.00018954,0.0018932,0.23275,
-2.9356,0.81305,-1.5362,-0.00015926,0.001884,0.23273,
-2.946,0.81547,-1.539,-0.0001719,0.0018632,0.23274,
-2.9536,0.81566,-1.551,-0.00017262,0.0018401,0.23274,
-2.9596,0.81496,-1.5601,-0.00018632,0.0018183,0.23271,
-2.963,0.80537,-1.5621,-0.00019717,0.0018111,0.2327,
-2.9593,0.78039,-1.5613,-0.00017405,0.0018344,0.23267,
-2.9482,0.74655,-1.5615,-0.00018084,0.0018779,0.23265,
-2.9373,0.71654,-1.5611,-0.00019503,0.0019444,0.23264,
-2.9321,0.69361,-1.5564,-0.00017655,0.0020013,0.23264,
-2.9285,0.67026,-1.5468,-0.00016713,0.0020747,0.2326,
-2.918,0.64333,-1.5396,-0.00018573,0.0021601,0.23256,
-2.8975,0.62629,-1.5453,-0.00017369,0.0021707,0.23255,
-2.8704,0.64141,-1.564,-0.00016916,0.0021477,0.23254,
-2.8401,0.69708,-1.5794,-0.0001837,0.002106,0.23253,
-2.8056,0.77522,-1.5727,-0.00018656,0.0020615,0.23251,
-2.7636,0.84597,-1.5387,-0.00018466,0.0020279,0.23249,
-2.7142,0.89477,-1.4872,-0.00018024,0.0019593,0.23248,
-2.6607,0.9294,-1.4326,-0.00018346,0.0018908,0.23245,
-2.6054,0.95986,-1.3857,-0.00018406,0.0018593,0.23239,
-2.5486,0.98055,-1.3498,-0.00019169,0.0018474,0.23232,
-2.4932,0.97813,-1.3231,-0.00019264,0.0018427,0.23222,
-2.4433,0.94749,-1.3083,-0.0001899,0.0018359,0.23211,
-2.398,0.89162,-1.3119,-0.0002023,0.0018314,0.23204,
-2.3517,0.81615,-1.3256,-0.00019038,0.0018477,0.23199,
-2.3013,0.73243,-1.3196,-0.00017905,0.0018584,0.23197,
-2.2476,0.65284,-1.2743,-0.00020969,0.001848,0.23191,
-2.1894,0.57405,-1.2107,-0.0002017,0.0018504,0.23184,
-2.1242,0.48069,-1.1665,-0.00017118,0.0018678,0.23178,
-2.0542,0.37233,-1.1428,-0.00020504,0.0019113,0.23175,
-1.9846,0.26669,-1.1033,-0.00023675,0.0019237,0.23177,
-1.9149,0.16992,-1.0279,-0.00022399,0.0019337,0.23187,
-1.8396,0.07214,-0.94158,-0.00019491,0.0019448,0.23204,
-1.7589,-0.015311,-0.87949,-0.000193,0.0019457,0.23221,
-1.6795,-0.049347,-0.84487,-0.0002284,0.0019599,0.23236,
-1.604,-0.0028586,-0.81428,-0.00021935,0.0019773,0.23254,
-1.5274,0.098597,-0.76608,-0.00020278,0.0019968,0.23274,
-1.4457,0.20387,-0.69146,-0.00024366,0.0019993,0.23292,
-1.3616,0.27991,-0.59582,-0.00024891,0.0019892,0.2331,
-1.2786,0.31959,-0.50537,-0.00021148,0.0019751,0.23334,
-1.1961,0.33479,-0.45578,-0.00023782,0.0019805,0.23356,
-1.1138,0.35504,-0.45574,-0.00027108,0.001977,0.23371,
-1.0347,0.4032,-0.47453,-0.00024343,0.001954,0.23387,
-0.96056,0.45885,-0.4788,-0.00022423,0.0019557,0.23407,
-0.88576,0.47602,-0.4637,-0.00025535,0.0019872,0.23429,
-0.80493,0.44555,-0.43672,-0.00027108,0.0019948,0.23448,
-0.72188,0.4034,-0.39646,-0.00024939,0.0019873,0.23462,
-0.6442,0.37173,-0.34292,-0.00022984,0.0019884,0.2348,
-0.57092,0.33811,-0.28575,-0.00027204,0.0019727,0.235,
-0.49368,0.30068,-0.23079,-0.00028718,0.0019736,0.23521,
-0.40837,0.28164,-0.17924,-0.00025928,0.001984,0.23548,
-0.318,0.2822,-0.14171,-0.00026464,0.0019896,0.23581,
-0.22563,0.2739,-0.1263,-0.0002867,0.0020086,0.23618,
-0.13133,0.24952,-0.1121,-0.00029194,0.0020287,0.23657,
-0.036722,0.23567,-0.064672,-0.00028515,0.0020238,0.23695,
0.053712,0.2402,0.016925,-0.00028658,0.0019557,0.23735,
0.13878,0.23336,0.094127,-0.00029993,0.0018591,0.23771,
0.22372,0.19954,0.13822,-0.00029409,0.0017875,0.23803,
0.31227,0.16451,0.16381,-0.00029552,0.0017487,0.23837,
0.39958,0.14908,0.20053,-0.00031543,0.0017608,0.23871,
0.4798,0.13372,0.25077,-0.00031221,0.0017779,0.23907,
0.55675,0.093497,0.29602,-0.00029016,0.0018028,0.23937,
0.63763,0.035547,0.33282,-0.00031006,0.0018264,0.23966,
0.71926,-0.022337,0.37588,-0.0003289,0.0018708,0.23994,
0.79116,-0.083285,0.42808,-0.00031149,0.001906,0.24023,
0.85122,-0.15732,0.47233,-0.00030446,0.0018905,0.24059,
0.90889,-0.23515,0.49937,-0.00031662,0.0018462,0.24089,
0.97198,-0.29746,0.52408,-0.00033617,0.0018196,0.24113,
1.0384,-0.33801,0.56339,-0.00032902,0.001812,0.24145,
1.1033,-0.36272,0.61101,-0.00031877,0.0018071,0.24178,
1.167,-0.37773,0.64735,-0.0003407,0.0018131,0.24208,
1.2325,-0.39161,0.66714,-0.00035834,0.001825,0.24235,
1.2984,-0.41624,0.68438,-0.00032413,0.00185,0.24266,
1.3604,-0.45121,0.71392,-0.00035799,0.0018458,0.24301,
1.4189,-0.47774,0.75727,-0.0003686,0.0018467,0.24338,
1.4784,-0.481,0.80098,-0.00035071,0.0018356,0.24374,
1.5394,-0.4691,0.8237,-0.00036263,0.0018243,0.24409,
1.5962,-0.46041,0.81488,-0.0003798,0.0018071,0.24443,
1.6446,-0.46205,0.79267,-0.00039065,0.0017904,0.24476,
1.6886,-0.46952,0.793,-0.00038135,0.0018097,0.24508,
1.7349,-0.47776,0.83497,-0.00037098,0.0018338,0.24535,
1.7808,-0.4841,0.90459,-0.00039554,0.0018309,0.24558,
1.8161,-0.48902,0.97308,-0.00040066,0.0018402,0.2457,
1.8386,-0.4991,1.021,-0.00039148,0.0018425,0.24569,
1.8595,-0.51966,1.0448,-0.00039911,0.0018445,0.24558,
1.8889,-0.54236,1.053,-0.00041509,0.0018399,0.24539,
1.9226,-0.55475,1.0571,-0.00040138,0.0018407,0.24507,
1.9502,-0.56423,1.0613,-0.00040698,0.0018407,0.24463,
1.9711,-0.59367,1.0606,-0.00042427,0.0018381,0.24421,
1.9922,-0.64731,1.0548,-0.00042617,0.0018418,0.24375,
2.0156,-0.69847,1.0567,-0.00041914,0.0018705,0.24325,
2.0378,-0.72018,1.0751,-0.00042045,0.0019169,0.24275,
2.0582,-0.71616,1.0969,-0.00043619,0.0019329,0.24234,
2.0784,-0.71176,1.102,-0.00043595,0.0019467,0.24191,
2.0949,-0.72058,1.092,-0.00044405,0.0019654,0.24137,
2.1012,-0.73051,1.088,-0.0004313,0.0019901,0.24081,
2.0996,-0.72476,1.0986,-0.00043833,0.0019915,0.24031,
2.0995,-0.70729,1.1086,-0.00045669,0.0019802,0.23995,
2.1042,-0.69704,1.1068,-0.000453,0.0019619,0.23969,
2.1077,-0.70085,1.105,-0.00043547,0.0019561,0.23943,
2.1074,-0.70734,1.1182,-0.00045907,0.0019494,0.23909,
2.1096,-0.70884,1.1384,-0.00046051,0.0019252,0.23875,
2.1161,-0.71204,1.1459,-0.0004679,0.0019048,0.23848,
2.1177,-0.71948,1.1343,-0.0004729,0.0019029,0.23821,
2.1085,-0.71774,1.1104,-0.00046134,0.0019203,0.23797,
2.0955,-0.69665,1.0793,-0.00047278,0.0019473,0.2378,
2.0859,-0.66707,1.0418,-0.00048006,0.001983,0.2376,
2.0738,-0.64565,1.0048,-0.00048065,0.0020055,0.23734,
2.0504,-0.63282,0.98036,-0.00048745,0.0020078,0.23705,
2.0187,-0.61975,0.97352,-0.00048828,0.0019772,0.2367,
1.9883,-0.60673,0.977,-0.00046396,0.001923,0.2363,
1.9615,-0.5988,0.97821,-0.00047708,0.001887,0.23592,
1.9324,-0.59042,0.97051,-0.00049651,0.0018572,0.2356,
1.8986,-0.57085,0.9571,-0.00049722,0.0018467,0.23539,
1.8638,-0.54138,0.94498,-0.00050449,0.001847,0.23523,
1.8308,-0.5132,0.93707,-0.0004797,0.0018624,0.23506,
1.798,-0.49052,0.9314,-0.00049019,0.0018781,0.23492,
1.7624,-0.4695,0.92464,-0.00052261,0.0018833,0.23479,
1.7239,-0.45277,0.9125,-0.00049424,0.0019152,0.23467,
1.685,-0.4495,0.89081,-0.00049686,0.0019418,0.23452,
1.6477,-0.45843,0.86222,-0.00050449,0.0019414,0.23435,
1.6107,-0.4639,0.83759,-0.00048149,0.0019634,0.2342,
1.5701,-0.45261,0.82254,-0.00051212,0.001955,0.23406,
1.5242,-0.42505,0.80759,-0.00053513,0.0019331,0.23385,
1.4768,-0.38912,0.78044,-0.00050557,0.0019355,0.23363,
1.4309,-0.35188,0.74248,-0.0005188,0.001924,0.23344,
1.3837,-0.31821,0.70318,-0.00052881,0.001889,0.23328,
1.3323,-0.28957,0.66598,-0.00051033,0.0018613,0.23311,
1.2799,-0.26438,0.63163,-0.00053108,0.0018551,0.23296,
1.232,-0.24505,0.60738,-0.00052238,0.0018749,0.23285,
1.1878,-0.24097,0.59907,-0.00051665,0.0019075,0.23276,
1.1414,-0.25964,0.59895,-0.00052714,0.0018996,0.2327,
1.0894,-0.29834,0.59252,-0.00052953,0.001892,0.23265,
1.0326,-0.34715,0.57401,-0.00052893,0.001907,0.23257,
0.97252,-0.39577,0.54778,-0.00051618,0.001906,0.2325,
0.9114,-0.43686,0.51817,-0.0005157,0.0018977,0.23244,
0.85225,-0.46647,0.48403,-0.00051641,0.0019113,0.23236,
0.79593,-0.48159,0.44336,-0.00052202,0.0019375,0.23228,
0.73797,-0.47725,0.40063,-0.00051975,0.0019594,0.23221,
0.6736,-0.45032,0.36503,-0.00052714,0.0019689,0.23213,
0.606,-0.40819,0.33904,-0.00053191,0.0019313,0.23208,
0.54548,-0.36681,0.31454,-0.00052595,0.0019161,0.23205,
0.49885,-0.33079,0.28562,-0.00052178,0.0019343,0.23205,
0.46047,-0.27958,0.25811,-0.00052857,0.0019609,0.23204,
0.41528,-0.19072,0.23899,-0.00051427,0.0019699,0.23203,
0.35308,-0.079404,0.22352,-0.00051928,0.0019879,0.23203,
0.27998,0.0073928,0.20074,-0.00052404,0.0019962,0.23203,
0.21158,0.046933,0.16551,-0.00051546,0.0020086,0.23201,
0.15494,0.066987,0.12028,-0.00051153,0.0020043,0.23198,
0.1035,0.1009,0.073327,-0.00051725,0.001989,0.23197,
0.049934,0.14341,0.038378,-0.00052106,0.0019834,0.23196,
-0.0050382,0.17384,0.023615,-0.00052035,0.0019673,0.23194,
-0.058523,0.19629,0.016377,-0.00051343,0.0019194,0.23189,
-0.11127,0.22573,-0.0088428,-0.00053477,0.0018731,0.23184,
-0.16461,0.25464,-0.061512,-0.00053751,0.0018412,0.2318,
-0.21785,0.26531,-0.12423,-0.0005163,0.0018226,0.23177,
-0.2712,0.26077,-0.17368,-0.00052297,0.0018159,0.23177,
-0.32643,0.25658,-0.20216,-0.0005188,0.0018163,0.23176,
-0.38284,0.25548,-0.21737,-0.00052428,0.0018578,0.23175,
-0.43672,0.25345,-0.23179,-0.00053406,0.0019268,0.23172,
-0.48606,0.25646,-0.25402,-0.00051796,0.0020081,0.23171,
-0.53217,0.26987,-0.28293,-0.00050354,0.0020505,0.23172,
-0.57652,0.28362,-0.31029,-0.0005089,0.0020423,0.23173,
-0.61965,0.28546,-0.33237,-0.00051916,0.0020283,0.23173,
-0.66226,0.27942,-0.35343,-0.00052202,0.0020117,0.23173,
-0.70475,0.27934,-0.37416,-0.00050533,0.0019784,0.23173,
-0.74721,0.29219,-0.3853,-0.00052094,0.0019143,0.23172,
-0.79095,0.31534,-0.38197,-0.00051224,0.001889,0.23169,
-0.83636,0.34227,-0.37793,-0.00050378,0.0019032,0.23167,
-0.87861,0.36458,-0.391,-0.00052011,0.0019209,0.23166,
-0.91192,0.37436,-0.41596,-0.00052392,0.0019381,0.23163,
-0.93976,0.37068,-0.43374,-0.00051534,0.0019268,0.2316,
-0.97241,0.36164,-0.45184,-0.00050914,0.0019009,0.23159,
-1.0122,0.35678,-0.50268,-0.00051284,0.0018851,0.23157,
-1.0498,0.35804,-0.5865,-0.00051033,0.001888,0.23153,
-1.0789,0.36058,-0.65412,-0.00051284,0.001864,0.23151,
-1.1029,0.36365,-0.67287,-0.00051165,0.0018607,0.23149,
-1.1269,0.37554,-0.6723,-0.00051105,0.0018967,0.23148,
-1.1507,0.40112,-0.69485,-0.00051916,0.0019481,0.23147,
-1.1742,0.42727,-0.73618,-0.00051665,0.0019528,0.23146,
-1.2005,0.4308,-0.76572,-0.00050902,0.0019211,0.23144,
-1.2289,0.40369,-0.77505,-0.00050807,0.0019077,0.23142,
-1.2548,0.36555,-0.77434,-0.00050557,0.0019026,0.23142,
-1.2779,0.34692,-0.76334,-0.00051045,0.0019096,0.23143,
-1.3018,0.35973,-0.73493,-0.00049698,0.001925,0.23141,
-1.326,0.38756,-0.69741,-0.00049782,0.0019186,0.23139,
-1.3465,0.40769,-0.67176,-0.00049436,0.0019305,0.23136,
-1.3656,0.41683,-0.66742,-0.00048888,0.0019379,0.23135,
-1.389,0.42732,-0.67072,-0.00049007,0.001947,0.23136,
-1.4146,0.44362,-0.65866,-0.00049365,0.0019444,0.23138,
-1.433,0.45507,-0.62419,-0.00049365,0.0018967,0.23138,
-1.4403,0.45158,-0.59025,-0.00048661,0.0018618,0.23137,
-1.4434,0.43632,-0.59442,-0.00048244,0.0018443,0.23137,
-1.4506,0.41943,-0.65114,-0.00048089,0.0018392,0.23136,
-1.4611,0.40537,-0.73228,-0.00048316,0.0018439,0.23136,
-1.4677,0.39025,-0.79276,-0.00048447,0.0018252,0.23136,
-1.4673,0.36817,-0.80972,-0.00048208,0.0018536,0.23137,
-1.4631,0.33887,-0.78933,-0.00047672,0.0019323,0.23136,
-1.4574,0.31045,-0.7482,-0.00047851,0.0019959,0.23135,
-1.447,0.29159,-0.70375,-0.00047708,0.0020325,0.23134,
-1.4303,0.27792,-0.67301,-0.00047886,0.0020123,0.23132,
-1.4125,0.25471,-0.66175,-0.00048065,0.0019927,0.23132,
-1.3999,0.22132,-0.65765,-0.00046158,0.0019822,0.23132,
-1.3917,0.20129,-0.6474,-0.00046563,0.0019941,0.23131,
-1.3813,0.21344,-0.63879,-0.0004636,0.0020074,0.23128,
-1.3651,0.24336,-0.6539,-0.00045526,0.0019981,0.23125,
-1.3461,0.26094,-0.69893,-0.00045311,0.0019686,0.23124,
-1.3282,0.25854,-0.74983,-0.00044656,0.0019584,0.23125,
-1.3131,0.25628,-0.77217,-0.00044608,0.001953,0.23125,
-1.3019,0.27519,-0.75232,-0.0004468,0.001949,0.23124,
-1.2953,0.31567,-0.70744,-0.00043416,0.0019566,0.23124,
-1.2889,0.35773,-0.66765,-0.00043511,0.0019379,0.23123,
-1.2744,0.37719,-0.64916,-0.00042987,0.0019116,0.23123,
-1.2494,0.36707,-0.64467,-0.00042617,0.0019019,0.2312,
-1.2219,0.34417,-0.64007,-0.00042737,0.001931,0.23118,
-1.2004,0.33035,-0.6341,-0.00041664,0.0019602,0.23115,
-1.182,0.3303,-0.63402,-0.00039506,0.0019677,0.23113,
-1.1558,0.33285,-0.63795,-0.00040305,0.0019571,0.23114,
-1.1194,0.32941,-0.6346,-0.00041032,0.0019656,0.23115,
-1.0836,0.32224,-0.61843,-0.00039589,0.0019877,0.23113,
-1.0584,0.3155,-0.5949,-0.00039065,0.0020015,0.2311,
-1.0394,0.30665,-0.57239,-0.00038517,0.0019947,0.23109,
-1.0159,0.29226,-0.55556,-0.00038862,0.0019718,0.23108,
-0.98658,0.27715,-0.54331,-0.0003835,0.0019344,0.23109,
-0.95711,0.26912,-0.52876,-0.00038278,0.0018941,0.23112,
-0.92892,0.26671,-0.50641,-0.0003736,0.0018842,0.23112,
-0.89911,0.26045,-0.48054,-0.00036609,0.0018898,0.23111,
-0.86747,0.24503,-0.45855,-0.00035441,0.0019035,0.23109,
-0.8345,0.22242,-0.43795,-0.00035691,0.0019212,0.23106,
-0.79768,0.196,-0.41515,-0.00034821,0.0019341,0.23103,
-0.75772,0.16981,-0.40634,-0.00033402,0.0019487,0.23099,
-0.72181,0.1506,-0.43763,-0.00034046,0.0019644,0.23098,
-0.69383,0.14212,-0.5044,-0.00033951,0.001954,0.23099,
-0.66735,0.13896,-0.55785,-0.00033462,0.0018862,0.23101,
-0.63323,0.13293,-0.54666,-0.00033176,0.0018444,0.23102,
-0.58895,0.12375,-0.46382,-0.00032878,0.0018409,0.23101,
-0.53841,0.1175,-0.3415,-0.00031734,0.001828,0.23102,
-0.48798,0.11622,-0.2112,-0.00030744,0.0018195,0.23104,
-0.4435,0.11433,-0.089644,-0.0003016,0.0018278,0.23104,
-0.40599,0.10597,0.0022525,-0.00030398,0.0018481,0.23104,
-0.37024,0.093737,0.040094,-0.00030255,0.0018826,0.23106,
-0.33105,0.086529,0.028751,-0.00028956,0.0019064,0.23106,
-0.28931,0.085993,0.0060033,-0.00029278,0.0019149,0.23108,
-0.24903,0.079995,-0.0052579,-0.00028849,0.0019259,0.23108,
-0.21196,0.058458,-0.021771,-0.00027847,0.0019155,0.23107,
-0.17804,0.030713,-0.057387,-0.00027907,0.0019054,0.23107,
-0.14689,0.013136,-0.088571,-0.00027442,0.0018865,0.23106,
-0.11544,0.0029081,-0.091195,-0.00027347,0.0018574,0.23106,
-0.0787,-0.017991,-0.082364,-0.00027168,0.0018246,0.23103,
-0.035723,-0.052326,-0.093236,-0.00026453,0.0018315,0.23102,
0.0088866,-0.08006,-0.12448,-0.00026178,0.001869,0.23103,
0.050597,-0.085854,-0.15923,-0.00026178,0.0019038,0.23102,
0.088233,-0.077823,-0.19611,-0.0002569,0.0019054,0.23098,
0.12197,-0.072638,-0.23457,-0.00024986,0.0019045,0.23097,
0.15239,-0.075948,-0.24541,-0.00024641,0.0018967,0.23097,
0.18162,-0.084288,-0.19428,-0.00024104,0.0018919,0.23098,
0.21242,-0.093292,-0.088257,-0.00023413,0.0018721,0.23097,
0.24578,-0.096206,0.031688,-0.0002296,0.0018634,0.23098,
0.28004,-0.086532,0.13723,-0.00023508,0.0018574,0.23101,
0.313,-0.070138,0.22322,-0.00023687,0.0018687,0.23101,
0.34481,-0.062751,0.28507,-0.00022697,0.001907,0.23099,
0.37751,-0.069162,0.32145,-0.00023186,0.0019435,0.23099,
0.41066,-0.078647,0.35006,-0.00023293,0.0019481,0.23098,
0.43995,-0.086279,0.38571,-0.00022483,0.0019265,0.23094,
0.46241,-0.10217,0.40953,-0.00021291,0.0018915,0.23092,
0.48085,-0.13101,0.39065,-0.00022459,0.0018787,0.23093,
0.50045,-0.15739,0.3341,-0.00022459,0.001884,0.23093,
0.52186,-0.16472,0.28222,-0.00020516,0.0018877,0.23093,
0.54116,-0.16098,0.2688,-0.00020468,0.0018853,0.23091,
0.55728,-0.17146,0.28795,-0.00020814,0.0018817,0.2309,
0.57584,-0.20602,0.30909,-0.0002017,0.0018842,0.23088,
0.60177,-0.24456,0.31363,-0.00020075,0.0018878,0.23089,
0.62998,-0.2592,0.31059,-0.00020492,0.0019151,0.23092,
0.64995,-0.2448,0.31533,-0.00020599,0.0019088,0.23093,
0.66003,-0.22199,0.3234,-0.0002079,0.0018845,0.23092,
0.66941,-0.21204,0.32037,-0.00019848,0.0018724,0.23091,
0.68398,-0.21521,0.31095,-0.00020289,0.0018691,0.23087,
0.69997,-0.21724,0.31427,-0.00019932,0.001852,0.23085,
0.71475,-0.21145,0.33105,-0.00020146,0.0018287,0.23087,
0.733,-0.20587,0.34054,-0.00019979,0.0018129,0.23091,
0.75623,-0.2091,0.3342,-0.00018823,0.0018189,0.23091,
0.77636,-0.21869,0.33078,-0.00018442,0.001856,0.23092,
0.78627,-0.22655,0.35237,-0.00018251,0.0018773,0.23094,
0.78959,-0.22909,0.40015,-0.00019348,0.0018731,0.23094,
0.79448,-0.22784,0.4563,-0.00019288,0.0018666,0.23096,
0.80346,-0.22506,0.4991,-0.0001924,0.0018725,0.23095,
0.81424,-0.22397,0.51465,-0.00018525,0.001892,0.23094,
0.82605,-0.23003,0.50153,-0.00018907,0.0018989,0.23092,
0.83964,-0.24566,0.46786,-0.00020468,0.0018958,0.23091,
0.85324,-0.26357,0.4261,-0.00019777,0.0018678,0.23089,
0.86363,-0.27096,0.39151,-0.00019777,0.0018543,0.2309,
0.8715,-0.26181,0.37796,-0.00019991,0.0018439,0.23089,
0.88234,-0.24148,0.38721,-0.00019825,0.0018384,0.23087,
0.89906,-0.21986,0.40698,-0.00020063,0.0018396,0.23086,
0.91563,-0.20417,0.42562,-0.00020528,0.0018438,0.23086,
0.9227,-0.19681,0.4413,-0.00019288,0.0018564,0.23085,
0.92015,-0.19592,0.453,-0.00018919,0.0018646,0.23082,
0.91725,-0.19723,0.45782,-0.00020242,0.0018666,0.2308,
0.91969,-0.19629,0.46804,-0.00020099,0.0018691,0.23077,
0.92406,-0.19094,0.51088,-0.00020242,0.0018753,0.23074,
0.92622,-0.18414,0.59018,-0.00020313,0.0018747,0.23073,
0.92675,-0.18206,0.66302,-0.0002023,0.0018655,0.23075,
0.92667,-0.18548,0.68116,-0.00019825,0.0018581,0.23078,
0.92504,-0.1879,0.64665,-0.00020564,0.0018499,0.23079,
0.92213,-0.18672,0.60335,-0.00020611,0.0018431,0.23081,
0.91989,-0.18821,0.58376,-0.00020432,0.0018407,0.23079,
0.91845,-0.19647,0.58552,-0.0001992,0.0018413,0.23074,
0.91573,-0.20694,0.58792,-0.00020182,0.0018451,0.23071,
0.9101,-0.21527,0.5716,-0.00020075,0.0018433,0.2307,
0.90045,-0.22271,0.53066,-0.00019765,0.0018679,0.23069,
0.8854,-0.22947,0.47738,-0.00020194,0.0018926,0.23068,
0.86572,-0.23194,0.42898,-0.00020039,0.0018989,0.23068,
0.84522,-0.22878,0.38969,-0.00020802,0.0018748,0.2307,
0.82589,-0.22236,0.35576,-0.00021732,0.0018383,0.23073,
0.80607,-0.21404,0.33279,-0.00021958,0.001812,0.23074,
0.78612,-0.2037,0.3347,-0.00022066,0.0018091,0.23072,
0.76932,-0.19166,0.36752,-0.00021994,0.0018097,0.23071,
0.75427,-0.17761,0.42217,-0.0002166,0.0017918,0.23065,
0.73558,-0.16177,0.47997,-0.00021398,0.0017784,0.23063,
0.71502,-0.14942,0.52054,-0.00022709,0.001773,0.23069,
0.70093,-0.14772,0.52817,-0.00022221,0.0017819,0.23073,
0.69412,-0.15577,0.49806,-0.00021958,0.0017821,0.23072,
0.6858,-0.16514,0.44352,-0.00021744,0.001774,0.23067,
0.6715,-0.17191,0.39877,-0.00021863,0.0017626,0.23063,
0.65541,-0.17937,0.40081,-0.00021315,0.0017722,0.23062,
0.63985,-0.18597,0.45195,-0.00022113,0.0017915,0.23062,
0.62105,-0.18183,0.50796,-0.00022674,0.0017946,0.23062,
0.59674,-0.16424,0.51965,-0.00022304,0.0018039,0.23063,
0.56951,-0.146,0.47836,-0.00022566,0.0018334,0.23067,
0.54154,-0.13822,0.40811,-0.0002228,0.0018411,0.23066,
0.51188,-0.13494,0.33009,-0.00022852,0.001816,0.23064,
0.47953,-0.12653,0.25416,-0.00023556,0.0017897,0.23062,
0.44531,-0.11736,0.1897,-0.00022781,0.0017749,0.2306,
0.41104,-0.11571,0.13971,-0.00022542,0.0017517,0.23058,
0.37948,-0.11596,0.08824,-0.00022769,0.001737,0.2306,
0.35327,-0.10746,0.015355,-0.00023115,0.001722,0.23061,
0.33149,-0.093901,-0.068,-0.00023341,0.0017225,0.23061,
0.3097,-0.087213,-0.11316,-0.0002346,0.0017319,0.23062,
0.28558,-0.087317,-0.078761,-0.00023568,0.0017476,0.23062,
0.2613,-0.083833,0.018462,-0.00023949,0.001776,0.23059,
0.23847,-0.075191,0.11666,-0.00023675,0.0017942,0.23058,
0.21518,-0.069678,0.17585,-0.0002445,0.0017943,0.23056,
0.19107,-0.067995,0.20955,-0.00024486,0.0017993,0.23054,
0.17019,-0.060981,0.24499,-0.00024784,0.0018044,0.23053,
0.15442,-0.046039,0.28222,-0.00024283,0.0017974,0.23052,
0.13866,-0.031218,0.30412,-0.00025225,0.0018094,0.23052,
0.11783,-0.022012,0.29614,-0.00025129,0.0018177,0.23049,
0.093946,-0.016895,0.24014,-0.00024068,0.001827,0.23047,
0.071277,-0.015309,0.12144,-0.00024807,0.0018198,0.23048,
0.048549,-0.018228,-0.031113,-0.00025749,0.0018034,0.2305,
0.021675,-0.021382,-0.13799,-0.00025415,0.0017879,0.23049,
-0.0092376,-0.017567,-0.14096,-0.00025427,0.0017819,0.23049,
-0.0406,-0.0057247,-0.075261,-0.00025356,0.0017966,0.2305,
-0.06968,0.0081116,-0.03764,-0.00025439,0.0018035,0.23051,
-0.094216,0.017189,-0.085208,-0.0002569,0.0018076,0.23052,
-0.11181,0.01797,-0.19058,-0.00026155,0.0018151,0.23053,
-0.12407,0.01196,-0.2858,-0.00026727,0.0018011,0.23053,
-0.13773,0.0065778,-0.32158,-0.00027025,0.0017695,0.23053,
-0.15737,0.0094192,-0.29342,-0.00027442,0.001757,0.23052,
-0.17959,0.020571,-0.2372,-0.00027466,0.001771,0.23051,
-0.19811,0.03527,-0.19717,-0.0002681,0.0017891,0.23052,
-0.21177,0.051226,-0.18481,-0.00027418,0.001802,0.23054,
-0.22361,0.066989,-0.17368,-0.00027096,0.0018065,0.23055,
-0.23588,0.078573,-0.13779,-0.00027823,0.0018216,0.23053,
-0.25036,0.085272,-0.086619,-0.00028443,0.0018499,0.23049,
-0.2697,0.0926,-0.058609,-0.00027585,0.0018566,0.23046,
-0.29299,0.10261,-0.082815,-0.00027609,0.0018344,0.23044,
-0.31374,0.10864,-0.14715,-0.00027013,0.0018094,0.23044,
-0.32737,0.10648,-0.20659,-0.00028181,0.0018005,0.23046,
-0.33719,0.10329,-0.22649,-0.00027347,0.001786,0.23046,
-0.3491,0.10812,-0.21428,-0.00028479,0.0017883,0.23046,
-0.3642,0.11918,-0.20345,-0.00029278,0.0017916,0.23047,
-0.38045,0.12768,-0.21459,-0.00027883,0.0017987,0.23047,
-0.39741,0.13149,-0.24276,-0.00028455,0.0018145,0.23043,
-0.41475,0.13716,-0.27434,-0.00028157,0.0018172,0.23039,
-0.42926,0.14668,-0.29781,-0.000278,0.0017966,0.23039,
-0.43881,0.15007,-0.3017,-0.0002861,0.0017872,0.23042,
-0.44643,0.13969,-0.28319,-0.00028384,0.00178,0.23044,
-0.45534,0.12642,-0.26031,-0.00027215,0.0017642,0.23045,
-0.46279,0.12805,-0.25788,-0.00028443,0.0017686,0.23042,
-0.46452,0.14335,-0.27924,-0.00028682,0.001776,0.23041,
-0.46338,0.15441,-0.30669,-0.00028932,0.0017855,0.23041,
-0.46808,0.15434,-0.32783,-0.00028777,0.0017835,0.23039,
-0.48291,0.15392,-0.34489,-0.00028276,0.001773,0.23041,
-0.50232,0.15906,-0.35876,-0.00027978,0.0017757,0.23038,
-0.51772,0.16152,-0.36272,-0.00028527,0.001792,0.23034,
-0.52813,0.157,-0.35676,-0.00028527,0.0017948,0.23032,
-0.54022,0.15474,-0.35273,-0.00028682,0.0017885,0.23033,
-0.55792,0.16226,-0.35631,-0.00027847,0.0018065,0.23036,
-0.57717,0.17314,-0.3546,-0.00028217,0.0018446,0.23038,
-0.5919,0.17529,-0.33268,-0.00028837,0.0018673,0.2304,
-0.59987,0.16398,-0.2962,-0.00029111,0.0018663,0.23041,
-0.60135,0.14479,-0.26609,-0.00028193,0.0018725,0.23041,
-0.59828,0.12888,-0.2545,-0.0002774,0.0018824,0.23038,
-0.59594,0.12519,-0.25661,-0.00028336,0.0018803,0.23036,
-0.59926,0.13305,-0.26228,-0.00028861,0.0018708,0.23036,
-0.60579,0.14282,-0.26481,-0.00029695,0.0018512,0.23036,
-0.60764,0.14595,-0.2613,-0.0002805,0.0018286,0.23036,
-0.60134,0.14286,-0.25556,-0.00028086,0.0018203,0.23037,
-0.59113,0.13987,-0.25854,-0.00028861,0.0018306,0.23036,
-0.58187,0.14109,-0.27592,-0.00028753,0.0018238,0.23036,
-0.57433,0.14551,-0.29678,-0.00028837,0.0018022,0.23037,
-0.56888,0.14961,-0.30518,-0.00029194,0.0017763,0.23033,
-0.56734,0.15058,-0.30225,-0.00029063,0.0017719,0.23028,
-0.56741,0.14826,-0.30408,-0.00028682,0.0017803,0.23028,
-0.56171,0.14408,-0.31606,-0.00028968,0.0017798,0.23027,
-0.54763,0.13702,-0.32346,-0.00028443,0.0017737,0.23026,
-0.53331,0.12428,-0.31277,-0.00027919,0.0017555,0.23025,
-0.52758,0.10895,-0.28963,-0.00028551,0.0017349,0.23021,
-0.52749,0.10031,-0.26919,-0.00027859,0.001727,0.23019,
-0.52291,0.10158,-0.25905,-0.00027585,0.0017247,0.23018,
-0.51178,0.10546,-0.25829,-0.00027347,0.0017307,0.23019,
-0.50273,0.10788,-0.26641,-0.0002681,0.0017318,0.2302,
-0.50127,0.1154,-0.2852,-0.00027573,0.0017372,0.23019,
-0.50252,0.13189,-0.30983,-0.00027192,0.0017391,0.23018,
-0.50096,0.14847,-0.32187,-0.00026608,0.0017653,0.23017,
-0.49824,0.15429,-0.3026,-0.00027144,0.0017743,0.23017,
-0.49543,0.1491,-0.2585,-0.00027227,0.0017899,0.23017,
-0.48709,0.14014,-0.21885,-0.00026155,0.0017923,0.23017,
-0.47075,0.13312,-0.19748,-0.00026131,0.0017866,0.23016,
-0.45393,0.12945,-0.17606,-0.00026822,0.0017483,0.23015,
-0.44313,0.12755,-0.13978,-0.00026083,0.0017486,0.23015,
-0.43367,0.1245,-0.10614,-0.00026095,0.0017577,0.23015,
-0.4187,0.11869,-0.097166,-0.0002687,0.0017575,0.23015,
-0.40085,0.11158,-0.10445,-0.00024629,0.0017803,0.23014,
-0.38661,0.10529,-0.10599,-0.00025678,0.0018051,0.23016,
-0.37628,0.09982,-0.10052,-0.00021946,0.0018063,0.23014,
-0.36673,0.095566,-0.10125,-0.00030589,0.0017873,0.23013,
-0.35809,0.095857,-0.10829,-0.00016916,0.0017494,0.23013,
-0.35081,0.10261,-0.10927,-0.00026822,0.0017269,0.23016,
-0.341,0.11188,-0.10044,-0.00025499,0.0017543,0.23016,
-0.32521,0.11785,-0.090006,-0.00020671,0.00177,0.23013,
-0.30685,0.11693,-0.084106,-0.00028753,0.0017871,0.23013,
-0.29136,0.10556,-0.08152,-0.00027311,0.0018232,0.23014,
-0.2779,0.082812,-0.079917,-0.00024843,0.0018439,0.23013,
-0.2625,0.056955,-0.079082,-0.00023746,0.0018514,0.2301,
-0.24654,0.038007,-0.078182,-0.00024426,0.0018356,0.2301,
-0.23409,0.023849,-0.074862,-0.00024343,0.0018297,0.23014,
-0.22223,0.0079407,-0.068974,-0.00025845,0.0018109,0.23014,
-0.20311,-0.0030734,-0.064827,-0.00026846,0.0017966,0.23012,
-0.17662,0.0014303,-0.066296,-0.00020993,0.001796,0.2301,
-0.15267,0.012646,-0.070793,-0.00025022,0.0017912,0.23008,
-0.13731,0.0097779,-0.072522,-0.00025594,0.0017915,0.2301,
-0.12414,-0.0090258,-0.07037,-0.00024211,0.0017828,0.23012,
-0.1054,-0.023212,-0.067094,-0.00023508,0.0017679,0.23012,
-0.084905,-0.020046,-0.062712,-0.00024605,0.0017811,0.23009,
-0.07138,-0.010387,-0.05517,-0.00022471,0.0018231,0.23008,
-0.063452,-0.0086946,-0.045197,-0.00024462,0.0018501,0.23007,
-0.052837,-0.013177,-0.034111,-0.00023031,0.0018592,0.23005,
-0.040564,-0.014966,-0.020476,-0.00024676,0.0018542,0.23003,
-0.035785,-0.013956,-0.0054582,-0.00023508,0.0018533,0.23001,
-0.036835,-0.013379,0.0037616,-0.00022161,0.0018804,0.23001,
-0.029232,-0.009123,0.0034592,-0.00024092,0.0018998,0.23003,
-0.0078618,0.00071497,0.00078769,-0.0002445,0.001887,0.23004,
0.014049,0.0038191,0.0039663,-0.00022185,0.0018634,0.23005,
0.025006,-0.010985,0.010645,-0.00025856,0.0018288,0.23003,
0.030259,-0.031486,0.013469,-0.00020409,0.0018296,0.23,
0.039814,-0.035025,0.01126,-0.00023949,0.0018548,0.23,
0.053925,-0.021462,0.0088248,-0.00021946,0.0018765,0.23,
0.066883,-0.012427,0.01364,-0.0002017,0.0018862,0.22997,
0.076162,-0.017894,0.035207,-0.00024581,0.001892,0.22997,
0.08424,-0.025407,0.072806,-0.00023866,0.0018985,0.22998,
0.09698,-0.024965,0.10195,-0.00023866,0.0018963,0.22997,
0.11933,-0.023552,0.095437,-0.00021446,0.0018574,0.22996,
0.14879,-0.02996,0.06158,-0.00023413,0.0018222,0.22995,
0.17714,-0.042175,0.035486,-0.00024617,0.0018177,0.22994,
0.20071,-0.054548,0.030661,-0.00022507,0.0018234,0.22995,
0.22223,-0.06456,0.030886,-0.00023746,0.0018154,0.22993,
0.24221,-0.069723,0.030544,-0.00022697,0.0017821,0.22992,
0.25795,-0.068287,0.045529,-0.00022244,0.0017582,0.22993,
0.27112,-0.064373,0.07814,-0.0002284,0.0017449,0.22992,
0.28508,-0.063815,0.1052,-0.00023353,0.0017385,0.22991,
0.29457,-0.065243,0.11044,-0.00020838,0.0017381,0.2299,
0.29097,-0.063054,0.10368,-0.00025403,0.0017501,0.2299,
0.27927,-0.057954,0.10056,-0.00023222,0.0017743,0.22987,
0.27571,-0.056911,0.1026,-0.00020719,0.0018023,0.22985,
0.2856,-0.062474,0.10448,-0.00024366,0.0018096,0.22986,
0.2966,-0.068208,0.1067,-0.00023603,0.0018169,0.22987,
0.29814,-0.067095,0.11236,-0.00022066,0.0018115,0.22988,
0.29566,-0.061064,0.11826,-0.00024819,0.0018085,0.22988,
0.29951,-0.057704,0.11743,-0.00022101,0.0018356,0.22989,
0.30786,-0.058085,0.10837,-0.00024986,0.0018618,0.22988,
0.3091,-0.054335,0.097007,-0.0002197,0.0018518,0.22988,
0.29906,-0.042415,0.090061,-0.00024283,0.0018494,0.22987,
0.28948,-0.030534,0.091417,-0.00026393,0.0018673,0.22987,
0.29566,-0.028351,0.10429,-0.00020874,0.0018687,0.22986,
0.31743,-0.033716,0.12914,-0.00026536,0.001863,0.22985,
0.33841,-0.038824,0.15695,-0.00025535,0.0018519,0.22985,
0.34591,-0.043478,0.17379,-0.00023413,0.0018231,0.22985,
0.34334,-0.050656,0.17699,-0.00025213,0.0018004,0.22983,
0.34008,-0.055252,0.17689,-0.00024986,0.0018041,0.22981,
0.34021,-0.052562,0.17698,-0.00024283,0.0018119,0.2298,
0.34606,-0.053023,0.16796,-0.00024724,0.001822,0.22978,
0.35968,-0.071088,0.15159,-0.00023949,0.001833,0.22977,
0.37453,-0.10189,0.15078,-0.00024688,0.0018435,0.22975,
0.37857,-0.12516,0.17852,-0.0002588,0.0018405,0.22975,
0.371,-0.13068,0.21565,-0.000247,0.0018238,0.22975,
0.36307,-0.12526,0.23824,-0.00023782,0.0018162,0.22975,
0.35943,-0.11679,0.24798,-0.00025606,0.0018286,0.22975,
0.35376,-0.10618,0.25578,-0.00025427,0.0018221,0.22976,
0.34497,-0.094828,0.25587,-0.00023997,0.0018162,0.22977,
0.3408,-0.08698,0.2392,-0.00025058,0.0018328,0.22977,
0.34137,-0.08296,0.21529,-0.0002625,0.0018587,0.22976,
0.33615,-0.079164,0.19812,-0.00027132,0.0018803,0.22976,
0.32277,-0.07489,0.18546,-0.00027585,0.0018874,0.22977,
0.3138,-0.072852,0.17292,-0.00026083,0.0019151,0.22976,
0.31844,-0.074715,0.17086,-0.00026739,0.0019258,0.22976,
0.32931,-0.080438,0.18396,-0.00027859,0.0019196,0.22976,
0.33371,-0.088874,0.19174,-0.00027013,0.0019073,0.22976,
0.32931,-0.096365,0.17584,-0.00028706,0.0018585,0.22976,
0.32265,-0.097406,0.15102,-0.00027549,0.0018047,0.22975,
0.31768,-0.087452,0.14212,-0.00028455,0.0017813,0.22975,
0.31244,-0.065737,0.14445,-0.00028694,0.0017843,0.22977,
0.30568,-0.040232,0.13544,-0.00028825,0.0018083,0.22976,
0.30137,-0.028961,0.11491,-0.0002743,0.0018398,0.22974,
0.30394,-0.045414,0.10511,-0.00031185,0.0018733,0.22972,
0.31204,-0.078695,0.11499,-0.00029945,0.001864,0.2297,
0.31955,-0.099402,0.12895,-0.000296,0.0017966,0.22969,
0.32133,-0.091174,0.13185,-0.00030839,0.001757,0.22966,
0.31594,-0.065216,0.12599,-0.0002923,0.0017457,0.22964,
0.30521,-0.03944,0.12004,-0.00029862,0.0017401,0.22963,
0.29329,-0.020843,0.11604,-0.00030422,0.0017542,0.22963,
0.28505,-0.01584,0.11407,-0.00031281,0.0017295,0.22961,
0.28281,-0.034524,0.11888,-0.00031495,0.0016872,0.2296,
0.28361,-0.069304,0.13237,-0.00031316,0.0016621,0.22961,
0.28064,-0.090424,0.14561,-0.00032473,0.0016526,0.22963,
0.26934,-0.081042,0.14884,-0.00032318,0.001608,0.22964,
0.25217,-0.061307,0.14533,-0.00030565,0.0015556,0.22962,
0.23611,-0.062636,0.14515,-0.00031602,0.0015246,0.22961,
0.22672,-0.090816,0.14888,-0.00034201,0.0014976,0.2296,
0.22394,-0.12615,0.14875,-0.00034463,0.0014826,0.22958,
0.22076,-0.14879,0.14227,-0.00034642,0.0014509,0.22958,
0.20874,-0.15315,0.13445,-0.00034153,0.001442,0.22959,
0.18872,-0.14498,0.12938,-0.00034213,0.0015322,0.22959,
0.17173,-0.13373,0.12759,-0.00034356,0.0016049,0.22959,
0.16483,-0.12584,0.12693,-0.0003413,0.0016774,0.22959,
0.16272,-0.12247,0.12057,-0.0003233,0.0017247,0.22959,
0.15811,-0.12473,0.1025,-0.00033474,0.0017327,0.22958,
0.15088,-0.13515,0.080674,-0.00037014,0.0017112,0.22959,
0.14138,-0.14755,0.074829,-0.00036097,0.0017023,0.2296,
0.12652,-0.14499,0.096304,-0.00035524,0.0017139,0.2296,
0.10908,-0.12018,0.13919,-0.00035274,0.0016961,0.22961,
0.09808,-0.088589,0.18955,-0.00038338,0.0016736,0.22962,
0.094009,-0.0681,0.22828,-0.00037384,0.0016528,0.22962,
0.087633,-0.055477,0.2308,-0.00032735,0.0016568,0.22962,
0.076777,-0.036637,0.18758,-0.00036001,0.0016644,0.22962,
0.068627,-0.010708,0.12361,-0.00038421,0.0016605,0.22962,
0.063396,0.010317,0.074372,-0.00037456,0.0016395,0.22963,
0.052449,0.020479,0.044778,-0.00036955,0.001618,0.22962,
0.034542,0.025954,0.013654,-0.0003854,0.0016084,0.22961,
0.018324,0.033667,-0.027076,-0.00038218,0.0015882,0.2296,
0.0069662,0.044543,-0.062208,-0.0003686,0.0015224,0.22958,
-0.005692,0.058849,-0.078277,-0.00036478,0.0014249,0.22956,
-0.021348,0.076583,-0.076596,-0.00038505,0.001385,0.22956,
-0.031767,0.090668,-0.063979,-0.00039482,0.0014017,0.22957,
-0.031807,0.094555,-0.047263,-0.00039077,0.001371,0.22957,
-0.029721,0.097705,-0.033827,-0.00041354,0.0013192,0.22955,
-0.037925,0.11324,-0.026701,-0.00042105,0.0013052,0.22953,
-0.056709,0.13103,-0.02356,-0.00039899,0.0013102,0.22953,
-0.07364,0.13012,-0.024682,-0.00038648,0.0013187,0.22953,
-0.079317,0.11558,-0.033143,-0.00041783,0.0013621,0.22952,
-0.077903,0.1103,-0.044955,-0.00041318,0.0013843,0.22951,
-0.079948,0.11323,-0.050363,-0.00037515,0.001382,0.22953,
-0.090025,0.103,-0.048631,-0.00040138,0.0013641,0.22954,
-0.10487,0.081244,-0.050897,-0.00042176,0.0013365,0.22954,
-0.12003,0.072997,-0.063536,-0.0004133,0.001305,0.22952,
-0.13465,0.081647,-0.078879,-0.0004158,0.0012562,0.22952,
-0.15063,0.081096,-0.088816,-0.00041986,0.0011946,0.22953,
-0.1684,0.059357,-0.096762,-0.00042367,0.0011073,0.22953,
-0.18401,0.037453,-0.10768,-0.00040627,0.0010676,0.22952,
-0.19196,0.035363,-0.1182,-0.00040162,0.0010883,0.2295,
-0.19106,0.04498,-0.12641,-0.00041974,0.0011296,0.22947,
-0.18535,0.047507,-0.13753,-0.00040698,0.0011729,0.22945,
-0.1798,0.03869,-0.1496,-0.00041509,0.0011855,0.22945,
-0.17785,0.026212,-0.14997,-0.00042796,0.0011622,0.22946,
-0.18035,0.015229,-0.13685,-0.00043845,0.0011597,0.22945,
-0.18344,0.0073738,-0.12509,-0.00044191,0.0012312,0.22942,
-0.18101,0.0061023,-0.11856,-0.0004251,0.0012518,0.22941,
-0.17239,0.010334,-0.098412,-0.00042307,0.0012286,0.2294,
-0.16253,0.0057297,-0.055164,-0.00041389,0.0012208,0.22938,
-0.15318,-0.021064,-0.012848,-0.00041568,0.0012351,0.22937,
-0.14234,-0.055971,-0.0038697,-0.00041723,0.0012403,0.22938,
-0.13312,-0.065614,-0.0351,-0.00042665,0.0012306,0.22937,
-0.13309,-0.041546,-0.089426,-0.00044537,0.0012358,0.22936,
-0.14324,-0.014167,-0.14169,-0.00044131,0.0012423,0.22935,
-0.15614,-0.0099904,-0.16502,-0.00044298,0.0012528,0.22933,
-0.164,-0.020021,-0.14566,-0.00043595,0.0012345,0.22932,
-0.16195,-0.025661,-0.10384,-0.00042117,0.0011934,0.22932,
-0.14899,-0.029248,-0.081507,-0.00043464,0.0011514,0.22931,
-0.13338,-0.039216,-0.098825,-0.00038695,0.001116,0.2293,
-0.12989,-0.047092,-0.13681,-0.00039387,0.001087,0.22928,
-0.1433,-0.039691,-0.16841,-0.00043344,0.0010474,0.22926,
-0.16078,-0.019565,-0.19027,-0.00044179,0.0010252,0.22925,
-0.16831,0.0021413,-0.21285,-0.00044525,0.00099945,0.22926,
-0.16795,0.021511,-0.23489,-0.0004636,0.00098038,0.22927,
-0.17093,0.038213,-0.24815,-0.00044894,0.00096512,0.22926,
-0.17999,0.046303,-0.2563,-0.0004189,0.00096095,0.22925,
-0.18869,0.041789,-0.25847,-0.00039363,0.0009445,0.22927,
-0.19475,0.034125,-0.22195,-0.00039423,0.00091028,0.2293,
-0.20236,0.037648,-0.11858,-0.00039351,0.00091958,0.2293,
-0.21138,0.052189,0.0078818,-0.00041318,0.00090516,0.22929,
-0.2156,0.063,0.068963,-0.00046098,0.00090158,0.22927,
-0.21509,0.061371,0.043976,-0.00046694,0.00089252,0.22928,
-0.21881,0.0549,0.0075296,-0.00045455,0.00088966,0.22929,
-0.22942,0.054633,0.02201,-0.00044596,0.00090337,0.22928,
-0.23678,0.061731,0.0614,-0.00042534,0.0008713,0.22923,
-0.23394,0.069887,0.072318,-0.00038409,0.00083697,0.22923,
-0.22831,0.072943,0.056754,-0.00035429,0.00079787,0.22927,
-0.22839,0.068907,0.051679,-0.00037181,0.00075948,0.22927,
-0.22976,0.062573,0.060844,-0.00039279,0.00070727,0.22926,
-0.22353,0.061775,0.052576,-0.00046206,0.00066841,0.22924,
-0.21082,0.066481,0.014603,-0.00051987,0.00062823,0.22922,
-0.20085,0.068609,-0.026694,-0.00048518,0.00060427,0.22923,
-0.19972,0.066404,-0.046156,-0.00042498,0.00060427,0.22921,
-0.20675,0.067612,-0.051934,-0.00038612,0.00061607,0.22919,
-0.21779,0.074492,-0.066816,-0.00034022,0.00062621,0.22921,
-0.22686,0.078785,-0.096094,-0.0003165,0.00063646,0.22925,
-0.22692,0.074859,-0.12695,-0.00029349,0.00067616,0.22928,
-0.21462,0.065893,-0.148,-0.00032091,0.00070906,0.22928,
-0.19544,0.056883,-0.15867,-0.00054061,0.00073957,0.22927,
-0.18061,0.052055,-0.16756,-0.00065875,0.0007565,0.22928,
-0.1768,0.055262,-0.18557,-0.00044465,0.00075483,0.22928,
-0.18021,0.063183,-0.20658,-0.00031102,0.00075853,0.22928,
-0.18138,0.065654,-0.19435,-0.00034595,0.00077474,0.22929,
-0.17491,0.061422,-0.11621,-0.00035274,0.00076866,0.22928,
-0.16347,0.06251,0.0016556,-0.00024724,0.00073683,0.22929,
-0.15266,0.074508,0.08635,-0.00016248,0.000705,0.22928,
-0.14466,0.085827,0.10085,-0.00039768,0.00066793,0.22926,
-0.13865,0.085378,0.079095,-0.00081313,0.00063825,0.22924,
-0.13477,0.077432,0.060756,-0.00050998,0.00061798,0.22923,
-0.13434,0.070267,0.031037,-0.0002898,0.00058699,0.22925,
-0.13663,0.062623,-0.047395,-0.00032532,0.00056183,0.22924,
-0.13754,0.05029,-0.17314,-0.00044096,0.00054419,0.22921,
-0.13286,0.036946,-0.30108,-0.00026214,0.00053537,0.22919,
-0.12339,0.030993,-0.37758,-0.00017524,0.00051987,0.22919,
-0.11561,0.035957,-0.36701,-0.00023043,0.0005064,0.2292,
-0.11405,0.047279,-0.26554,-0.00045419,0.00047815,0.22919,
-0.11428,0.056633,-0.10961,-0.0007453,0.00041437,0.22919,
-0.1085,0.059116,0.032427,-0.00045598,0.00035453,0.22919,
-0.097206,0.056417,0.093654,-0.00024867,0.00032783,0.22919,
-0.088175,0.05224,0.055513,-0.00035441,0.00032198,0.22919,
-0.08444,0.047317,-0.028587,-0.00050032,0.00032771,0.22918,
-0.081697,0.041564,-0.075194,-0.00029087,0.00033987,0.2292,
-0.077033,0.036993,-0.053707,-0.00016451,0.00033867,0.22922,
-0.071267,0.034632,-0.012802,-0.00040364,0.00033975,0.22922,
-0.063373,0.032632,-0.013624,-0.00039268,0.00033391,0.22921,
-0.051596,0.030928,-0.061372,-0.00029159,0.00033128,0.22921,
-0.039503,0.033244,-0.11491,-0.00039279,0.00031948,0.22922,
-0.032504,0.040864,-0.13166,-0.00050449,0.00029695,0.22923,
-0.028586,0.048666,-0.086502,-0.00047743,0.00025141,0.22923,
-0.020023,0.051394,0.017756,-0.00035608,0.00024593,0.22924,
-0.0050808,0.050867,0.1311,-0.00031304,0.00027394,0.22923,
0.0084658,0.052573,0.17141,-0.00029254,0.00029743,0.22923,
0.013796,0.05559,0.092797,-0.00028741,0.0002948,0.22924,
0.013715,0.050097,-0.059971,-0.00029922,0.00029016,0.22924,
0.01479,0.029113,-0.18587,-0.00027406,0.00029993,0.22926,
0.01685,0.001891,-0.22968,-0.00032592,0.00030744,0.2293,
0.014648,-0.012005,-0.2365,-0.00049257,0.00031745,0.2293,
0.0088426,-0.0059033,-0.27951,-0.0005753,0.00034046,0.22928,
0.0081293,0.0055012,-0.34356,-0.00041831,0.00033832,0.22927,
0.018068,0.0081943,-0.32936,-0.00027561,0.00033236,0.22926,
0.033181,0.0088203,-0.18881,-0.00028431,0.00032699,0.22925,
0.043675,0.020356,-0.0023123,-0.00030863,0.00031197,0.22924,
0.046013,0.037849,0.11773,-0.00026071,0.00030446,0.22925,
0.043579,0.045358,0.15839,-0.00020599,0.0003016,0.22923,
0.041234,0.040028,0.19603,-0.00023448,0.00030935,0.22921,
0.043048,0.030635,0.28874,-0.00037813,0.00030065,0.22921,
0.051069,0.017802,0.42091,-0.00063658,0.00027347,0.2292,
0.06189,-0.0034651,0.52752,-0.00044811,0.00023353,0.2292,
0.06777,-0.02449,0.5399,-0.00025511,0.00020313,0.22919,
0.06468,-0.028543,0.42654,-0.00030327,0.00016832,0.22918,
0.05676,-0.017663,0.21325,-0.00035298,0.00013494,0.22919,
0.051214,-0.014206,-0.034357,-0.00027251,0.00010061,0.22921,
0.051375,-0.030933,-0.2426,-0.00017631,0.00010288,0.22922,
0.055279,-0.055506,-0.35296,-0.00023735,0.00012386,0.22921,
0.05826,-0.070067,-0.34773,-0.00029659,9.14E-05,0.2292,
0.056698,-0.072284,-0.26304,-0.00037491,5.72E-05,0.22921,
0.051705,-0.069503,-0.15694,-0.00050449,8.21E-05,0.22923,
0.049821,-0.063772,-0.064608,-0.00047636,0.00013304,0.22925,
0.058238,-0.054555,0.0049095,-0.0003413,0.00015593,0.22925,
0.077227,-0.050465,0.045905,-0.00027931,0.00013924,0.22925,
0.0971,-0.063899,0.049934,-0.00029409,0.00016177,0.22926,
0.10576,-0.092146,0.014149,-0.00022781,0.00018597,0.22926,
0.10214,-0.11585,-0.052778,-0.00023603,0.00017774,0.22924,
0.099366,-0.12129,-0.12599,-0.0002445,0.00016081,0.22924,
0.10962,-0.11382,-0.16511,-0.00022888,0.00013101,0.22926,
0.12776,-0.10334,-0.13154,-0.00036657,8.93E-05,0.22927,
0.1366,-0.087751,-0.017671,-0.00059116,2.92E-05,0.22926,
0.12869,-0.060166,0.13378,-0.00044835,-5.39E-05,0.22927,
0.11526,-0.023565,0.24329,-0.00032318,-4.72E-05,0.22928,
0.11126,0.010165,0.24872,-0.00027263,1.98E-05,0.22926,
0.11952,0.02786,0.16556,-0.00027323,7.41E-05,0.22923,
0.13308,0.01711,0.083883,-0.00022769,4.54E-05,0.22921,
0.14469,-0.024623,0.07997,-0.0002073,-3.24E-05,0.22919,
0.14934,-0.074161,0.13159,-0.0001682,-9.87E-05,0.22919,
0.14555,-0.09389,0.14704,-0.00018167,-0.00011396,0.2292,
0.13853,-0.073384,0.078301,-0.00045729,-8.07E-05,0.22921,
0.13588,-0.043397,-0.02506,-0.00064683,-8.58E-06,0.2292,
0.13802,-0.034399,-0.078218,-0.00033331,4.10E-05,0.22918,
0.13864,-0.040546,-0.045882,-0.0002439,7.49E-05,0.22916,
0.13477,-0.040102,0.042971,-0.00033462,9.73E-05,0.22915,
0.13054,-0.029942,0.13713,-0.00033438,9.86E-05,0.22914,
0.13119,-0.020842,0.20533,-0.00017178,0.00012326,0.22914,
0.13819,-0.016125,0.24897,-0.00016987,0.00012088,0.22912,
0.14785,-0.013297,0.28165,-0.00027561,7.78E-05,0.22911,
0.15115,-0.015422,0.29714,-0.00023329,6.74E-05,0.22909,
0.14138,-0.026417,0.26734,-0.00029337,7.25E-05,0.22907,
0.12556,-0.041039,0.17997,-0.00048184,5.87E-05,0.22904,
0.11958,-0.048776,0.068454,-0.00045645,3.62E-05,0.22903,
0.12867,-0.045457,-0.0096745,-0.00032163,3.81E-05,0.22904,
0.14312,-0.03671,-0.022317,-0.00025201,4.18E-05,0.22904,
0.15426,-0.031349,0.022389,-0.00024295,3.81E-05,0.22906,
0.16084,-0.033852,0.10482,-0.00020373,4.42E-05,0.22906,
0.16052,-0.04245,0.20649,-0.00020504,5.17E-05,0.22903,
0.15231,-0.05135,0.2881,-0.00016057,4.72E-05,0.22903,
0.14596,-0.053634,0.2988,-0.00015688,5.39E-05,0.22904,
0.15105,-0.04583,0.23079,-0.00031197,5.71E-05,0.22906,
0.15863,-0.033032,0.12918,-0.00061142,3.61E-05,0.22906,
0.15235,-0.025713,0.038096,-0.00044513,3.74E-05,0.22906,
0.13556,-0.027686,-0.017811,-0.0002501,6.06E-05,0.22906,
0.12739,-0.032505,-0.0076979,-0.00026155,3.43E-05,0.22905,
0.13205,-0.035664,0.076978,-0.00028944,-1.76E-05,0.22903,
0.13135,-0.041968,0.17426,-0.00023782,-2.16E-05,0.22901,
0.11326,-0.054556,0.20515,-0.00014436,-1.18E-05,0.22899,
0.09194,-0.066147,0.16395,-0.0001955,-7.87E-06,0.22897,
0.088681,-0.06943,0.095062,-0.00020635,-1.30E-05,0.22895,
0.10148,-0.067033,0.016787,-0.00017309,-3.58E-05,0.22894,
0.10673,-0.061754,-0.066118,-0.00032032,-7.01E-05,0.22893,
0.090294,-0.045641,-0.11833,-0.00059712,-8.93E-05,0.22893,
0.065236,-0.012406,-0.11239,-0.0003984,-8.79E-05,0.22894,
0.054541,0.02218,-0.078815,-0.00026035,-7.38E-05,0.22894,
0.064953,0.028794,-0.064528,-0.00022697,-6.57E-05,0.22892,
0.083948,0.00029093,-0.070776,-0.00023878,-7.12E-05,0.2289,
0.096475,-0.035325,-0.07148,-0.00017488,-0.00011623,0.22889,
0.097872,-0.049581,-0.060072,-0.00012267,-0.00015426,0.22888,
0.093463,-0.046422,-0.04003,-0.0001334,-0.00018227,0.22887,
0.09076,-0.044446,0.0015306,-0.00011766,-0.00017869,0.22885,
0.091114,-0.044503,0.070094,-0.00035524,-0.00015187,0.22887,
0.088101,-0.038317,0.13125,-0.00066471,-0.00011635,0.22888,
0.07694,-0.032581,0.13733,-0.00033402,-0.00012112,0.22886,
0.063414,-0.037729,0.07792,-0.00020969,-0.00014877,0.22882,
0.057392,-0.046113,-0.017422,-0.00024986,-0.00013852,0.22882,
0.060618,-0.045034,-0.10831,-0.00025821,-0.00010669,0.22882,
0.068503,-0.03798,-0.15263,-0.00015926,-8.25E-05,0.2288,
0.07859,-0.034008,-0.11372,-7.30E-05,-0.00011873,0.22878,
0.087928,-0.031974,0.0034972,-0.00026202,-0.00018406,0.22875,
0.089349,-0.029718,0.13501,-0.00025499,-0.00023091,0.22875,
0.081046,-0.031116,0.20756,-0.00017071,-0.00025928,0.22876,
0.07221,-0.034445,0.20544,-0.00033915,-0.00028396,0.22876,
0.069623,-0.031674,0.1746,-0.0003351,-0.00028574,0.22875,
0.067577,-0.022798,0.16581,-0.00033808,-0.00028896,0.22874,
0.059473,-0.014151,0.18073,-0.00032043,-0.00022089,0.22875,
0.049004,-0.0071438,0.17099,-0.00021803,-0.00015879,0.22875,
0.041361,-0.0057217,0.092515,-0.00018787,-0.00012565,0.22876,
0.033748,-0.022051,-0.035213,-0.0001173,-6.13E-05,0.22876,
0.023466,-0.053917,-0.13267,-0.00017798,-9.18E-06,0.22875,
0.015951,-0.073113,-0.1341,-0.0001713,-5.65E-05,0.22875,
0.015419,-0.060911,-0.05553,-0.00011182,-9.66E-05,0.22874,
0.015392,-0.038248,0.022172,-0.00027943,-5.25E-05,0.22874,
0.0083888,-0.034254,0.041128,-0.00058424,-2.73E-05,0.22874,
-0.00096342,-0.042396,0.023514,-0.00044656,-6.50E-05,0.22874,
-0.0030444,-0.037943,0.029374,-0.00021112,-6.13E-05,0.22873,
8.21E-05,-0.022001,0.074171,-0.00016773,-5.47E-05,0.22872,
-0.0039674,-0.013425,0.11473,-0.00015688,-3.03E-05,0.22871,
-0.019679,-0.010714,0.10781,-0.00013816,9.78E-06,0.2287,
-0.036152,0.0018694,0.048722,-0.0001018,5.45E-05,0.2287,
-0.041519,0.022318,-0.046837,-0.00011265,9.57E-05,0.22871,
-0.038816,0.040198,-0.16051,-0.0001111,3.81E-06,0.22873,
-0.041576,0.064227,-0.26,-0.00034392,-0.00023317,0.22872,
-0.056079,0.10386,-0.3049,-0.00067604,-0.0003463,0.22869,
-0.075329,0.13623,-0.2844,-0.00022686,-0.00026488,0.22866,
-0.091466,0.1301,-0.22769,-0.00011635,-0.00018513,0.22866,
-0.1048,0.094875,-0.16084,-0.00026262,-0.00014043,0.22866,
-0.11547,0.06854,-0.073103,-0.00024068,-0.00013292,0.22867,
-0.1168,0.061559,0.05285,-0.00025582,-0.00012624,0.22868,
-0.10656,0.050503,0.18777,-0.00025821,-9.29E-05,0.22867,
-0.095872,0.02677,0.26094,-0.00027549,-7.65E-05,0.22866,
-0.095221,0.012507,0.22954,-0.0002073,-7.86E-05,0.22867,
-0.10034,0.021863,0.12863,-6.99E-05,-8.63E-05,0.22866,
-0.10261,0.040694,0.039708,-4.89E-05,-0.00011563,0.22863,
-0.10332,0.053267,0.017453,-3.04E-05,-0.000139,0.2286,
-0.10636,0.060456,0.051379,-0.00047493,-0.00014222,0.2286,
-0.10733,0.063569,0.082014,-0.00058997,-0.00012088,0.22859,
-0.10193,0.054736,0.048929,-2.27E-05,-0.00010359,0.22859,
-0.096154,0.032498,-0.052461,-0.00024831,-0.00010633,0.22857,
-0.097315,0.0097523,-0.15072,-0.00035954,-0.00014043,0.22857,
-0.10244,-0.0002369,-0.15882,-0.00022936,-0.00020719,0.22857,
-0.10501,0.0060842,-0.068068,-0.00027823,-0.00021291,0.22855,
-0.10699,0.027201,0.035651,-0.00011075,-0.00017881,0.22853,
-0.11459,0.056679,0.05999,-0.00015903,-0.00014198,0.22854,
-0.12592,0.076141,-0.00051257,-0.00018084,-0.00010657,0.22857,
-0.13151,0.064735,-0.067033,0.00015688,-7.05E-05,0.2286,
-0.12639,0.025967,-0.065987,-0.00039792,-4.02E-05,0.22859,
-0.11556,-0.0066521,-0.0032471,-0.00071943,-2.77E-05,0.22858,
-0.1069,-0.0050503,0.057854,2.63E-05,-2.91E-05,0.22858,
-0.10242,0.019492,0.077494,-0.00023997,-2.55E-05,0.22859,
-0.097825,0.033422,0.071063,-0.00042975,-7.27E-06,0.22859,
-0.089324,0.025767,0.062638,-0.00025296,-1.76E-05,0.22856,
-0.079745,0.01658,0.044597,-0.00028276,-4.45E-05,0.22854,
-0.076172,0.022916,0.0014837,-6.63E-05,-7.19E-05,0.22855,
-0.081045,0.037581,-0.053619,-0.00014734,-5.26E-05,0.22856,
-0.087838,0.045968,-0.092147,-0.00016558,-9.78E-06,0.22855,
-0.087822,0.046224,-0.1067,5.84E-05,4.24E-05,0.22856,
-0.080661,0.043847,-0.11502,-0.00016189,6.83E-05,0.22855,
-0.076168,0.038397,-0.13344,-0.0007329,6.66E-05,0.22854,
-0.082729,0.026038,-0.15983,-0.00032341,7.02E-05,0.2285,
-0.093735,0.0083277,-0.18075,-2.75E-05,3.46E-05,0.22849,
-0.091832,-0.0094071,-0.18767,-0.00040591,-1.96E-05,0.2285,
-0.072089,-0.021598,-0.1849,-0.00035024,-3.50E-05,0.22849,
-0.053202,-0.019525,-0.18144,-0.00014973,-2.66E-05,0.22846,
-0.054393,0.0027154,-0.1777,-0.00022006,-3.92E-05,0.22844,
-0.068357,0.032646,-0.16814,-0.00016999,-6.50E-05,0.22844,
-0.073406,0.045787,-0.15679,-0.0001049,-0.00010562,0.22845,
-0.06614,0.037096,-0.15817,-0.00012553,-0.00012505,0.22846,
-0.061255,0.029502,-0.17838,-2.88E-05,-8.36E-05,0.22846,
-0.063432,0.040138,-0.20502,-0.00040615,-1.67E-05,0.22846,
-0.062992,0.055253,-0.21992,-0.0007,4.53E-05,0.22847,
-0.057807,0.053365,-0.21367,-5.50E-05,6.13E-05,0.22849,
-0.057082,0.038412,-0.18558,-0.00013626,8.50E-05,0.22849,
-0.06321,0.030841,-0.13932,-0.00051308,0.00011027,0.22848,
-0.06816,0.035225,-0.08489,-0.00016737,0.00012445,0.22847,
-0.067683,0.037221,-0.039617,-0.00010002,0.0001533,0.22846,
-0.065613,0.028933,-0.02066,-0.00027227,0.0001539,0.22844,
-0.065695,0.019148,-0.034202,-0.00031948,9.91E-05,0.22842,
-0.068968,0.0184,-0.069877,-0.00015461,6.31E-05,0.2284,
-0.076205,0.027285,-0.10642,-9.19E-05,5.72E-06,0.22839,
-0.085204,0.040761,-0.12664,-0.00016201,-5.19E-05,0.22837,
-0.089295,0.054407,-0.12636,-0.0003556,-9.08E-05,0.22835,
-0.085314,0.063648,-0.10685,-0.00069273,-0.00010347,0.22835,
-0.079082,0.062545,-0.067779,-0.00020838,-7.27E-05,0.22835,
-0.07655,0.04825,-0.018154,4.89E-06,-7.14E-05,0.22835,
-0.074162,0.026241,0.013719,-0.00047231,-4.28E-05,0.22835,
-0.065298,0.0082476,0.00096413,-0.0003444,2.48E-05,0.22839,
-0.051883,0.0040926,-0.048211,6.08E-06,0.00010478,0.22841,
-0.041507,0.015047,-0.093888,-0.00030839,0.00017214,0.22839,
-0.036172,0.031222,-0.10676,-0.00037527,0.00015712,0.22836,
-0.031812,0.035511,-0.091151,-7.00E-05,0.00010645,0.22835,
-0.027436,0.019552,-0.061036,-0.00015044,0.00010455,0.22837,
-0.027245,-0.0020185,-0.015727,-0.00029159,0.00016177,0.22836,
-0.032277,-0.0063935,0.047117,-0.00053382,0.00018811,0.22837,
-0.035484,0.0057958,0.11338,-0.00049734,0.00018585,0.22839,
-0.02978,0.010775,0.16372,-0.00010931,0.0001837,0.22839,
-0.018891,-0.0037222,0.19043,-0.00024605,0.00020719,0.22839,
-0.01409,-0.023601,0.19304,-0.00043941,0.00021207,0.22839,
-0.019261,-0.031343,0.17093,-0.00021315,0.00015354,0.22839,
-0.025654,-0.024078,0.12854,-0.00014853,0.00017905,0.22838,
-0.024746,-0.0046928,0.076279,-0.00031972,0.00026107,0.22836,
-0.019725,0.025757,0.02302,-0.00029707,0.00022638,0.22834,
-0.016802,0.05674,-0.020676,-0.0002687,0.00020337,0.22833,
-0.0097497,0.063308,-0.036185,-0.00028491,0.00021434,0.22831,
0.01341,0.031398,-0.012765,-0.0002352,0.00014699,0.22829,
0.046201,-0.013634,0.030898,-0.00026965,8.99E-05,0.22828,
0.062897,-0.02681,0.058663,-0.00051212,7.99E-05,0.2283,
0.05179,-0.00014044,0.053163,-0.00044847,5.83E-05,0.22832,
0.033349,0.026188,0.03012,-0.00018191,3.58E-05,0.22833,
0.031052,0.022682,0.016313,-0.00030184,8.18E-05,0.22831,
0.039572,0.0092186,0.020805,-0.00042808,0.00015044,0.2283,
0.039996,0.01354,0.030487,-0.00020146,0.00017488,0.22831,
0.032642,0.024158,0.030471,-0.00016737,0.00015473,0.2283,
0.032375,0.015223,0.022125,-0.00028896,0.00015295,0.22828,
0.040162,-0.0075177,0.017159,-0.00021124,0.00014997,0.22826,
0.042335,-0.018561,0.020849,-0.00031292,0.00012982,0.22826,
0.034593,-0.014205,0.030082,-0.00073051,0.00010097,0.22825,
0.026301,-0.013609,0.042574,-0.0004189,0.00011277,0.22826,
0.021497,-0.026727,0.055781,-1.67E-05,0.00012445,0.22827,
0.013058,-0.042675,0.058366,-0.00039768,0.00012302,0.22826,
-0.0017988,-0.048429,0.034817,-0.00056934,0.00010979,0.22827,
-0.013314,-0.046236,-0.016836,-0.00024927,9.64E-05,0.22828,
-0.011547,-0.047816,-0.074442,-0.00021887,8.03E-05,0.22828,
0.00030024,-0.054101,-0.1019,-0.00041378,9.00E-05,0.22829,
0.010404,-0.050346,-0.078092,-0.00038052,0.00010383,0.22832,
0.012927,-0.029497,-0.021797,-0.00015819,0.00010812,0.22828,
0.012495,-0.0097377,0.022696,-0.00013077,0.00012577,0.22825,
0.015059,-0.012319,0.032515,-0.0004822,0.00012589,0.22826,
0.020642,-0.030283,0.021218,-0.00073087,0.00012934,0.22825,
0.026439,-0.038638,0.00086685,-0.00034893,0.00011575,0.22823,
0.031518,-0.029298,-0.036737,-0.00013494,0.00011396,0.22823,
0.036414,-0.016683,-0.082917,-0.0004859,0.00011909,0.22824,
0.04193,-0.012803,-0.094801,-0.00062013,0.00010979,0.22825,
0.048605,-0.01428,-0.044569,-0.00031424,0.00010109,0.22825,
0.054008,-0.01369,0.042583,-0.00020838,0.00014746,0.22824,
0.053119,-0.011309,0.12298,-0.00033987,0.00022817,0.22821,
0.045701,-0.012926,0.1772,-0.00041556,0.00026357,0.2282,
0.039172,-0.021566,0.19873,-0.0004189,0.0002445,0.22818,
0.039793,-0.033673,0.1782,-0.00039375,0.00024331,0.22815,
0.046121,-0.042325,0.1289,-0.0003798,0.00025654,0.22815,
0.053818,-0.043359,0.093377,-0.00045168,0.00025213,0.22815,
0.059901,-0.038681,0.09003,-0.00052679,0.00024581,0.22816,
0.060992,-0.034504,0.083914,-0.00047195,0.00026274,0.22819,
0.055942,-0.035792,0.044207,-0.00035655,0.00028718,0.22818,
0.050642,-0.041103,-0.0037456,-0.00035775,0.00030088,0.22818,
0.05184,-0.043871,-0.02075,-0.00041902,0.00032258,0.22819,
0.057385,-0.039937,-0.010525,-0.00039864,0.00035119,0.22819,
0.060193,-0.032368,0.007351,-0.00037718,0.00035596,0.22818,
0.058105,-0.028054,0.04136,-0.0003798,0.0003413,0.22817,
0.053156,-0.030738,0.096895,-0.00044513,0.00034249,0.22816,
0.047835,-0.037782,0.13826,-0.00051391,0.00036192,0.22815,
0.047725,-0.043479,0.13223,-0.00046611,0.00035524,0.22812,
0.057413,-0.044923,0.097383,-0.00045848,0.00033724,0.22811,
0.068146,-0.043241,0.064789,-0.00046837,0.00031209,0.22812,
0.063583,-0.040079,0.025456,-0.00042462,0.00028837,0.22813,
0.044943,-0.036235,-0.035316,-0.00039506,0.00024331,0.22815,
0.0342,-0.032551,-0.085361,-0.00037372,0.00019956,0.22814,
0.043077,-0.028027,-0.080196,-0.00042105,0.00017929,0.22811,
0.056239,-0.019235,-0.029863,-0.0004636,0.00018036,0.22811,
0.056931,-0.006995,0.012781,-0.00038695,0.00018132,0.22812,
0.051364,-8.91E-05,0.018539,-0.0003897,0.00018215,0.22813,
0.052369,-0.0042266,0.0022498,-0.00048089,0.00018549,0.22813,
0.054752,-0.010563,-0.015532,-0.00049448,0.00019026,0.22814,
0.045048,-0.0058082,-0.036893,-0.00045407,0.00019419,0.22815,
0.025189,0.0084295,-0.072786,-0.00044715,0.00017965,0.22814,
0.0097983,0.018593,-0.11948,-0.00045836,0.00019205,0.22813,
0.0058925,0.019681,-0.15837,-0.00045526,0.00020325,0.22812,
0.0081548,0.018438,-0.17326,-0.0004319,0.00018442,0.22811,
0.010845,0.016838,-0.15966,-0.0004425,0.00014889,0.2281,
0.013838,0.0093287,-0.11789,-0.00044096,0.00014734,0.2281,
0.01721,-0.0010484,-0.048646,-0.00043511,0.00016856,0.22808,
0.017354,-0.001237,0.036159,-0.00044906,0.00018811,0.22807,
0.010956,0.011322,0.10772,-0.000494,0.00019014,0.22808,
0.00086195,0.022107,0.14225,-0.00044727,0.00018728,0.22807,
-0.0030893,0.020559,0.14729,-0.00041437,0.00019705,0.22807,
0.008188,0.01394,0.15069,-0.0004797,0.00020659,0.22807,
0.030887,0.012347,0.16303,-0.00048196,0.00019956,0.22806,
0.048038,0.013442,0.16838,-0.00045729,0.00020778,0.22804,
0.048159,0.012251,0.15375,-0.00049877,0.00022984,0.22801,
0.039182,0.01298,0.1268,-0.00048018,0.00024748,0.22799,
0.035599,0.017412,0.099846,-0.00044227,0.00025988,0.22797,
0.038667,0.013625,0.077102,-0.00044274,0.00027192,0.22797,
0.039196,-0.0053226,0.062205,-0.00043678,0.00025308,0.22796,
0.033173,-0.020003,0.058496,-0.00049198,0.00024176,0.22797,
0.02506,-0.0046831,0.059054,-0.00048721,0.00022578,0.22798,
0.020725,0.033136,0.052392,-0.00043738,0.00020123,0.22798,
0.023004,0.056571,0.036842,-0.00045288,0.00018227,0.22798,
0.029431,0.046439,0.017385,-0.00046599,0.00019288,0.22796,
0.032337,0.022576,-0.0042373,-0.00046515,0.0002147,0.22795,
0.026592,0.010991,-0.02444,-0.00044596,0.00025678,0.22797,
0.016342,0.010362,-0.033602,-0.00045598,0.00029981,0.22799,
0.0084361,0.0032728,-0.029429,-0.00046182,0.00031483,0.22799,
0.0028067,-0.014364,-0.023669,-0.00044799,0.0003016,0.22797,
-0.0035472,-0.029862,-0.024426,-0.00044847,0.00029719,0.22798,
-0.0076346,-0.033291,-0.024296,-0.00047266,0.00028765,0.22799,
-0.0046056,-0.028114,-0.017124,-0.00046909,0.00027156,0.22798,
0.002321,-0.022742,-0.012153,-0.00045741,0.00025046,0.22798,
0.0055935,-0.020483,-0.017872,-0.00044644,0.00023937,0.22799,
0.0055203,-0.020408,-0.024857,-0.00043225,0.00023878,0.22795,
0.0092795,-0.021184,-0.019584,-0.00043631,0.00026345,0.22793,
0.017739,-0.020471,-0.0053992,-0.00046468,0.00028682,0.22793,
0.022548,-0.01636,0.0032706,-0.0004499,0.00029016,0.22793,
0.01824,-0.011895,-0.00094733,-0.00042236,0.00026786,0.22793,
0.0095461,-0.011768,-0.016275,-0.00041008,0.00025451,0.22791,
0.0042772,-0.013776,-0.038795,-0.00043297,0.00026655,0.2279,
0.004809,-0.011977,-0.061561,-0.00045741,0.00029266,0.2279,
0.008372,-0.0089176,-0.073528,-0.00043142,0.00030982,0.22792,
0.011085,-0.014821,-0.068575,-0.00040305,0.00030267,0.22794,
0.010669,-0.031878,-0.053409,-0.00042963,0.00030923,0.22796,
0.0089866,-0.047478,-0.041398,-0.00043762,0.00035417,0.22794,
0.012118,-0.048022,-0.03849,-0.00041914,0.00037944,0.22792,
0.023549,-0.035815,-0.037561,-0.00040162,0.0003252,0.2279,
0.03641,-0.026215,-0.028346,-0.00041914,0.00025785,0.22787,
0.038164,-0.026585,-0.011317,-0.00043106,0.0002377,0.22786,
0.026702,-0.024538,0.0031356,-0.00041592,0.00022805,0.22788,
0.015972,-0.004202,0.0085306,-0.00040913,0.00023592,0.22788,
0.019038,0.03001,0.0069023,-0.00041378,0.00025249,0.22788,
0.030677,0.054396,-0.0011753,-0.00042033,0.00026631,0.22787,
0.03511,0.048642,-0.019098,-0.00041616,0.00026667,0.22787,
0.02676,0.013748,-0.041674,-0.00038171,0.00024962,0.22788,
0.013878,-0.026245,-0.052256,-0.00041294,0.00024712,0.22788,
0.0046343,-0.040239,-0.042108,-0.00043464,0.00026536,0.22784,
0.00023953,-0.021056,-0.025189,-0.00038135,0.00030351,0.2278,
0.00096021,0.00065582,-0.023731,-0.00038314,0.00031686,0.22779,
0.007602,-0.0085138,-0.041673,-0.00041866,0.00029171,0.2278,
0.014929,-0.039827,-0.059059,-0.00037754,0.00025785,0.22782,
0.013914,-0.056215,-0.052132,-0.00036013,0.00025976,0.22785,
0.0038352,-0.045386,-0.014661,-0.00039113,0.00030708,0.22785,
-0.0068228,-0.029736,0.041363,-0.00039351,0.00035238,0.22785,
-0.013541,-0.025625,0.10165,-0.00037539,0.00035846,0.22785,
-0.020315,-0.023319,0.15845,-0.00037801,0.00033271,0.22786,
-0.029663,-0.010865,0.20167,-0.00036347,0.00029445,0.22786,
-0.037785,0.0074376,0.21348,-0.00035763,0.00025201,0.22784,
-0.041791,0.023389,0.18507,-0.00036502,0.00024176,0.22783,
-0.044878,0.038603,0.13259,-0.00035715,0.00026143,0.22781,
-0.052558,0.057804,0.081979,-0.0003742,0.00025403,0.22778,
-0.065653,0.07608,0.04339,-0.0003382,0.00025153,0.22777,
-0.076518,0.080086,0.015384,-0.00033307,0.00023055,0.22776,
-0.074971,0.064475,0.0036522,-0.00034237,0.00018847,0.22777,
-0.061139,0.043227,0.0088744,-0.00035131,0.00018811,0.22778,
-0.046623,0.03397,0.0027531,-0.00035048,0.00022602,0.22779,
-0.039164,0.031427,-0.046133,-0.00036168,0.00024581,0.22777,
-0.035308,0.013926,-0.11688,-0.00034952,0.00025523,0.22777,
-0.032064,-0.019634,-0.14575,-0.00033629,0.00028813,0.22779,
-0.033219,-0.041292,-0.1056,-0.00031781,0.00029492,0.22781,
-0.038684,-0.032505,-0.037998,-0.00029469,0.00029254,0.2278,
-0.040181,-0.009942,0.012235,-0.00032806,0.00029778,0.22778,
-0.033489,0.00060454,0.05096,-0.00032675,0.00025499,0.22777,
-0.02459,-0.003092,0.092061,-0.00029445,0.00021923,0.22777,
-0.019176,-0.0088296,0.10555,-0.00031054,0.00021923,0.22776,
-0.015464,-0.014766,0.060205,-0.00032198,0.00025034,0.22774,
-0.011151,-0.02624,-0.0085727,-0.00032461,0.00025427,0.22776,
-0.0088033,-0.03873,-0.031065,-0.00032222,0.00018477,0.22775,
-0.0098904,-0.04094,0.0036973,-0.00031352,0.00018179,0.22772,
-0.010005,-0.029386,0.036392,-0.00029981,0.00019062,0.2277,
-0.0047466,-0.009894,0.018837,-0.00030196,0.00019991,0.22771,
0.003355,0.0090374,-0.035346,-0.00028002,0.00025678,0.22774,
0.0075385,0.018707,-0.084994,-0.00028539,0.00031435,0.22771,
0.0047235,0.014835,-0.10931,-0.00028574,0.00029695,0.22769,
-0.0018086,0.0043774,-0.11254,-0.00030112,0.00023091,0.2277,
-0.0066623,-9.22E-05,-0.10763,-0.00029612,0.00026941,0.22769,
-0.0070082,0.0058511,-0.10621,-0.00028598,0.00036824,0.22765,
-0.0032883,0.017617,-0.11044,-0.00030303,0.00039029,0.22764,
0.0021236,0.030503,-0.10864,-0.00033402,0.00033152,0.22765,
0.0053341,0.039762,-0.087191,-0.00032687,0.00026262,0.22764,
0.0019311,0.039493,-0.04942,-0.00027966,0.00024784,0.22764,
-0.0086703,0.033838,-0.015699,-0.00026548,0.00026381,0.22761,
-0.019674,0.038639,-0.0025884,-0.00029373,0.0002538,0.22758,
-0.022063,0.057149,-0.00857,-0.0002929,0.00024688,0.22755,
-0.015066,0.067547,-0.022117,-0.00026429,0.00024128,0.22754,
-0.0073427,0.052664,-0.032935,-0.00029492,0.00021267,0.22752,
-0.0056477,0.028323,-0.031337,-0.00030065,0.00021422,0.22751,
-0.0069439,0.021832,-0.012043,-0.00026011,0.00023377,0.2275,
-0.0053033,0.034434,0.0144,-0.00026691,0.00026953,0.2275,
-0.0027094,0.045884,0.03105,-0.00030148,0.0002991,0.2275,
-0.0074013,0.04656,0.039905,-0.00029051,0.00032473,0.2275,
-0.022636,0.044507,0.055929,-0.00027311,0.00033438,0.22749,
-0.042584,0.046268,0.074507,-0.00027192,0.00032425,0.22748,
-0.058877,0.048398,0.074965,-0.0002768,0.00032616,0.22749,
-0.065055,0.046074,0.059139,-0.00028861,0.00032771,0.2275,
-0.05653,0.037975,0.051704,-0.00027525,0.000314,0.2275,
-0.036248,0.024324,0.057414,-0.00026965,0.00029075,0.22751,
-0.019185,0.0083272,0.054222,-0.00027382,0.00026834,0.22752,
-0.018912,-0.0033151,0.036105,-0.00027084,0.00023818,0.22751,
-0.02997,-0.0070792,0.027601,-0.00026238,0.00022519,0.22751,
-0.035378,-0.0050924,0.044147,-0.00026238,0.00023973,0.22754,
-0.02966,0.0021387,0.065433,-0.00028217,0.00025856,0.22755,
-0.022027,0.015869,0.060645,-0.0002861,0.00028455,0.22754,
-0.01934,0.028549,0.022158,-0.00027966,0.0002991,0.22752,
-0.01902,0.027012,-0.034454,-0.0002737,0.00033867,0.2275,
-0.018051,0.011995,-0.08996,-0.00028479,0.00036454,0.22749,
-0.017604,6.96E-05,-0.13207,-0.00027657,0.00039279,0.22748,
-0.017958,0.00068492,-0.15549,-0.00026035,0.00041461,0.22747,
-0.017818,0.0060375,-0.16178,-0.00028336,0.00045395,0.22748,
-0.019016,0.0076674,-0.15801,-0.0002774,0.00047958,0.22748,
-0.023535,0.007222,-0.14985,-0.00026453,0.00047207,0.22747,
-0.026483,0.0071861,-0.13644,-0.00027502,0.00040925,0.22746,
-0.021699,0.0067264,-0.11592,-0.00027859,0.00035119,0.22748,
-0.013639,0.010245,-0.094407,-0.00028098,0.00036407,0.22748,
-0.012788,0.024152,-0.083025,-0.00028419,0.00038564,0.22746,
-0.019265,0.039226,-0.084535,-0.00028813,0.00036204,0.22748,
-0.021957,0.031979,-0.089683,-0.00028503,0.00033271,0.22747,
-0.01505,-0.0036242,-0.091113,-0.00026441,0.00033605,0.22746,
-0.005608,-0.037825,-0.094797,-0.00027597,0.00037837,0.22747,
-0.0025666,-0.038056,-0.11011,-0.00030029,0.00042844,0.22749,
-0.0062096,-0.013182,-0.13106,-0.00028002,0.00045037,0.22749,
-0.01172,-6.32E-05,-0.13611,-0.00026095,0.00041676,0.22746,
-0.016825,-0.0096497,-0.11016,-0.00025868,0.00037169,0.22743,
-0.021792,-0.016811,-0.061563,-0.00029469,0.00035203,0.22738,
-0.026199,-0.0055628,-0.012169,-0.00029647,0.00036025,0.22738,
-0.029467,0.008701,0.023062,-0.0002749,0.00039077,0.22738,
-0.031264,0.010702,0.039693,-0.00027215,0.0004077,0.22732,
-0.029386,0.0084659,0.039792,-0.0002718,0.00039375,0.2273,
-0.022066,0.01206,0.037702,-0.00030625,0.00036168,0.22731,
-0.014056,0.014249,0.055163,-0.00043094,0.00034285,0.22733,
-0.013555,0.0067558,0.093777,-0.00014997,0.00032461,0.22731,
-0.020046,-0.002601,0.12693,-5.47E-05,0.00027883,0.2273,
-0.022521,-0.0012662,0.13306,-0.0005399,0.00024831,0.22732,
-0.014314,0.011511,0.11846,-0.00031257,0.00025487,0.22732,
-0.0030351,0.025815,0.096239,-0.00012422,0.00029969,0.22731,
-0.00027779,0.02945,0.067153,-0.0003581,0.00031579,0.2273,
-0.0071895,0.014692,0.034294,-0.00027609,0.00029004,0.22728,
-0.016591,-0.012878,0.01261,-0.00026691,0.00027275,0.22728,
-0.024305,-0.033243,0.0096207,-0.0003494,0.00028527,0.22731,
-0.03008,-0.030411,0.015097,-0.00027549,0.00033545,0.22732,
-0.030516,-0.012116,0.016977,-0.00024271,0.00038517,0.22729,
-0.021407,-0.0027215,0.0077886,-0.00033653,0.00038552,0.22727,
-0.0072856,-0.015794,-0.026863,-0.0004065,0.00037658,0.22728,
0.0010176,-0.039064,-0.097422,-0.00010109,0.00039923,0.22729,
0.00010122,-0.048382,-0.17721,-0.00014341,0.00043261,0.22727,
-0.0030465,-0.035472,-0.20896,-0.00044727,0.00041366,0.22723,
-0.0028762,-0.017918,-0.16507,-0.0003196,0.00032353,0.22721,
-0.00093204,-0.015643,-0.08157,-0.00016797,0.00023437,0.22723,
0.0018985,-0.022242,-0.013288,-0.00028682,0.00025332,0.22721,
0.0088837,-0.014913,0.023682,-0.00033772,0.00030875,0.22719,
0.01997,0.0081395,0.0457,-0.00033569,0.00033867,0.22718,
0.029404,0.021448,0.061196,-0.00025296,0.00037146,0.22719,
0.033744,0.0094408,0.061111,-0.00019634,0.00038993,0.22718,
0.034751,-0.010701,0.035375,-0.0002712,0.00038886,0.22717,
0.033406,-0.015198,-0.015667,-0.00031745,0.00038111,0.22717,
0.029468,-0.0064809,-0.072921,-0.00029135,0.00039041,0.22719,
0.026884,-0.0036487,-0.098736,-0.00026,0.00041544,0.22719,
0.030338,-0.010415,-0.065611,-0.00030088,0.00043905,0.2272,
0.036922,-0.01268,0.013245,-0.00035357,0.00045693,0.22719,
0.040562,-0.0056584,0.097822,-0.00030994,0.00046134,0.22717,
0.042716,-0.0022752,0.15987,-0.00026512,0.00040841,0.22716,
0.047998,-0.009345,0.19353,-0.00026846,0.00035846,0.22715,
0.052021,-0.013101,0.2018,-0.00027168,0.0003022,0.22716,
0.046656,0.0015432,0.19042,-0.00027549,0.00020671,0.22716,
0.035561,0.027032,0.16505,-0.00023174,0.00016761,0.22715,
0.030456,0.03792,0.12456,-0.00025237,0.00014818,0.22714,
0.032793,0.019463,0.068526,-0.00034285,0.00014281,0.22712,
0.033325,-0.012146,0.012132,-0.00031161,0.00016665,0.2271,
0.029012,-0.024427,-0.022336,-0.00027084,0.00023317,0.22708,
0.025641,-0.0069233,-0.027092,-0.00028193,0.00038803,0.22707,
0.024623,0.013235,-0.0078975,-0.00029445,0.00047493,0.2271,
0.021983,0.0025601,0.029888,-0.00028396,0.00053239,0.22712,
0.01934,-0.038558,0.077814,-0.00024724,0.00053346,0.22713,
0.022365,-0.077857,0.11554,-0.0002296,0.00045574,0.22713,
0.030171,-0.089432,0.12184,-0.00026894,0.00040972,0.22711,
0.037186,-0.076085,0.092134,-0.00030839,0.00037062,0.22712,
0.041956,-0.053304,0.040384,-0.00033271,0.00031316,0.22715,
0.045043,-0.029206,-0.010016,-0.00031674,0.00022936,0.22717,
0.043619,-0.0090191,-0.036908,-0.00030029,0.00019372,0.22718,
0.037005,-0.001297,-0.031973,-0.0002923,0.00026274,0.22717,
0.032362,-0.0054748,-0.0061831,-0.00026011,0.00033355,0.22716,
0.036083,-0.0090138,0.023658,-0.00024271,0.00037372,0.22713,
0.043126,-0.008765,0.052163,-0.0002315,0.00036407,0.2271,
0.041872,-0.015154,0.080391,-0.00024807,0.00027812,0.22711,
0.027104,-0.023975,0.09827,-0.00032604,0.00024605,0.22711,
0.0046913,-0.010701,0.087832,-0.0003376,0.00031126,0.22706,
-0.012995,0.029632,0.046102,-0.00033367,0.00037885,0.227,
-0.015898,0.061085,-0.0071036,-0.0003655,0.00032949,0.227,
-0.0059406,0.046905,-0.045974,-0.00031316,0.00029182,0.227,
0.0037132,-0.0034016,-0.056008,-0.00024939,0.00030923,0.22699,
0.004868,-0.044733,-0.038,-0.00024962,0.00029778,0.22699,
0.004461,-0.047601,-0.0033234,-0.00022423,0.00030446,0.22699,
0.011183,-0.025707,0.036312,-0.00023746,0.00032294,0.22701,
0.020512,-0.011912,0.077435,-0.00031793,0.00034058,0.22702,
0.023121,-0.016914,0.11928,-0.00034261,0.00035346,0.22703,
0.019316,-0.023338,0.1517,-0.000368,0.00034785,0.22702,
0.014892,-0.018594,0.16042,-0.00041437,0.00033343,0.22703,
0.011427,-0.013872,0.14645,-0.00035918,0.0003252,0.22702,
0.0089369,-0.020927,0.12503,-0.00023556,0.0003351,0.22701,
0.0090248,-0.029983,0.097805,-0.00022566,0.00037658,0.22699,
0.0095223,-0.028937,0.043275,-0.00030911,0.00040364,0.22698,
0.0051977,-0.028364,-0.048851,-0.00031745,0.00041676,0.22695,
-0.0026709,-0.043982,-0.14743,-0.00025237,0.00044274,0.22694,
-0.006185,-0.063973,-0.20164,-0.00027311,0.000476,0.22692,
-0.0027882,-0.058444,-0.18499,-0.0003736,0.0004462,0.2269,
3.05E-05,-0.019768,-0.11084,-0.00047517,0.00044775,0.22689,
-0.004392,0.0262,-0.021863,-0.00044143,0.00044894,0.22685,
-0.010015,0.050029,0.031201,-0.00027227,0.00042689,0.22683,
-0.0023988,0.044237,0.025606,-0.00020635,0.00036168,0.22684,
0.022783,0.019417,-0.0076459,-0.00029027,0.00030673,0.22685,
0.050342,-0.0083331,-0.014415,-0.00032115,0.00028288,0.22686,
0.062084,-0.024273,0.019027,-0.00027573,0.00030172,0.22685,
0.058904,-0.024549,0.051624,-0.00029409,0.00034177,0.22683,
0.054651,-0.02124,0.040072,-0.00033987,0.00034165,0.2268,
0.051715,-0.026725,-0.015875,-0.00045669,0.00032139,0.22677,
0.04053,-0.035811,-0.084552,-0.00046933,0.00037622,0.22675,
0.022351,-0.035042,-0.13362,-0.00034714,0.00040805,0.22675,
0.010887,-0.023725,-0.14218,-0.00023973,0.00040388,0.22676,
0.0087444,-0.012896,-0.10828,-0.00025976,0.00037134,0.22677,
0.0041318,-0.0093044,-0.05744,-0.00032949,0.00040007,0.22678,
-0.0054182,-0.010878,-0.023147,-0.00032806,0.00044489,0.2268,
-0.0083782,-0.012597,-0.0099567,-0.00026214,0.00044215,0.22681,
-0.0025527,-0.011044,0.0054172,-0.00029206,0.00043535,0.22681,
-0.00089765,-0.0083729,0.032136,-0.0004245,0.00042546,0.22678,
-0.009448,-0.011237,0.043603,-0.00051379,0.00046229,0.22675,
-0.020144,-0.018923,0.0041597,-0.00039685,0.00050461,0.22673,
-0.027948,-0.018121,-0.091916,-0.00030506,0.00041878,0.2267,
-0.034792,0.0002574,-0.20929,-0.00036299,0.00023854,0.22669,
-0.036979,0.026317,-0.29457,-0.00035024,8.26E-05,0.22669,
-0.028919,0.046812,-0.31088,-0.00027239,9.36E-05,0.22669,
-0.017231,0.067029,-0.25389,-0.00026906,0.00017607,0.22671,
-0.013107,0.095243,-0.144,-0.00030029,0.00022972,0.22672,
-0.015241,0.11125,-0.013751,-0.00030053,0.00022602,0.22672,
-0.015393,0.084791,0.10479,-0.00045347,0.00022519,0.22671,
-0.013192,0.030033,0.19651,-0.00051296,0.00021386,0.22671,
-0.012211,0.00097054,0.26345,-0.00039828,0.00021029,0.2267,
-0.010656,0.018501,0.30042,-0.00033212,0.00023818,0.2267,
-0.007395,0.043477,0.28932,-0.00035501,0.00025022,0.22673,
-0.0076561,0.038681,0.23284,-0.00041568,0.00025558,0.22673,
-0.013477,0.01574,0.16764,-0.00034857,0.00024843,0.22672,
-0.018378,0.0022109,0.12198,-0.0002743,0.00024307,0.22672,
-0.018688,-0.00089231,0.086484,-0.00025356,0.00025976,0.22671,
-0.019778,-0.010107,0.049271,-0.00030589,0.00025654,0.2267,
-0.025307,-0.032187,0.028369,-0.00031781,0.0002476,0.22668,
-0.031106,-0.0568,0.037866,-0.00045323,0.00027299,0.2267,
-0.034492,-0.064921,0.049695,-0.00058115,0.00029206,0.22672,
-0.038702,-0.046323,0.026948,-0.00040019,0.00032711,0.22671,
-0.04411,-0.015224,-0.021195,-0.000265,0.00036097,0.22668,
-0.045606,0.0026544,-0.052384,-0.00035536,0.00033832,0.22667,
-0.041993,0.0026075,-0.048854,-0.00043941,0.00029993,0.22669,
-0.038762,0.0031091,-0.032877,-0.00038147,0.00030506,0.22669,
-0.039572,0.01343,-0.033417,-0.00021625,0.00032806,0.22668,
-0.04274,0.021605,-0.063872,-0.00021267,0.00036132,0.22667,
-0.046673,0.018757,-0.12159,-0.00035787,0.000337,0.22668,
-0.051865,0.013904,-0.17952,-0.00036705,0.00030029,0.22667,
-0.056942,0.018764,-0.18847,-0.0004884,0.00029469,0.22667,
-0.057547,0.033148,-0.12148,-0.00053167,0.0002681,0.22666,
-0.049909,0.048849,-0.01198,-0.00035274,0.00024521,0.22664,
-0.034193,0.057388,0.078893,-0.00027454,0.00024402,0.22666,
-0.015609,0.053612,0.12515,-0.00038517,0.00027287,0.22667,
-0.0019331,0.040577,0.14035,-0.0004437,0.00029278,0.22665,
0.0030017,0.030204,0.13351,-0.00031495,0.00029516,0.22662,
0.0030524,0.032357,0.10007,-0.00017321,0.00037527,0.22661,
0.0046005,0.045877,0.056221,-0.00020826,0.00045276,0.2266,
0.0089202,0.063827,0.039227,-0.00031948,0.0004468,0.2266,
0.011916,0.078371,0.054669,-0.00038242,0.00039017,0.22659,
0.0092656,0.077375,0.055333,-0.00054669,0.00030923,0.22658,
-0.00062897,0.05377,-0.00010719,-0.0004971,0.00027394,0.22656,
-0.015562,0.024251,-0.088578,-0.00025833,0.00025785,0.22654,
-0.02779,0.014859,-0.15064,-0.00024164,0.00022101,0.22653,
-0.027842,0.02085,-0.16414,-0.00037467,0.0001893,0.22653,
-0.016094,0.012109,-0.163,-0.00042963,0.00017595,0.22652,
-0.0061053,-0.013719,-0.18633,-0.00038552,0.00015986,0.2265,
-0.0087869,-0.024049,-0.23037,-0.00025582,0.00015211,0.22648,
-0.017371,-0.0088745,-0.25372,-0.00027263,0.00017262,0.22647,
-0.016404,0.00060818,-0.2189,-0.00034261,0.0001924,0.22648,
-0.0020456,-0.013185,-0.13142,-0.00039983,0.0002104,0.22649,
0.015302,-0.026896,-0.044265,-0.00042593,0.00021207,0.22649,
0.026249,-0.021652,-0.010309,-0.00035381,0.00023258,0.22648,
0.031154,-0.013073,-0.017612,-0.00023735,0.00024402,0.22648,
0.033135,-0.017768,0.0085453,-0.0002526,0.00023794,0.22647,
0.031298,-0.026327,0.11263,-0.0003438,0.0002346,0.22645,
0.025544,-0.025776,0.23168,-0.00038791,0.00019622,0.22646,
0.021723,-0.019766,0.25425,-0.00036967,0.00016904,0.22647,
0.024993,-0.014652,0.1601,-0.00032973,0.00017834,0.22649,
0.031706,-0.0085968,0.048648,-0.00028479,0.00017273,0.22649,
0.034733,-0.0019129,0.0075044,-0.00033224,0.00021887,0.22648,
0.03379,-0.00012975,0.0087439,-0.00037026,0.00026786,0.22646,
0.033891,-0.0031007,-0.029419,-0.00035071,0.00029612,0.22644,
0.036457,-0.0042919,-0.12783,-0.00031102,0.00032818,0.22642,
0.03762,-0.00092433,-0.23076,-0.00033486,0.00033033,0.2264,
0.032977,0.0043195,-0.26796,-0.00034511,0.00029325,0.22641,
0.021549,0.0081563,-0.20614,-0.00031948,0.00024354,0.22645,
0.0086145,0.0069413,-0.069104,-0.00028777,0.00011039,0.22645,
0.0038679,-0.00094627,0.074467,-0.00027812,-5.51E-05,0.22643,
0.010741,-0.0072114,0.15962,-0.00030577,-0.00014174,0.22641,
0.019492,0.0022207,0.16873,-0.00034571,-0.00013709,0.22638,
0.018034,0.027605,0.12792,-0.00035095,-6.04E-05,0.22632,
0.0072222,0.049215,0.079453,-0.00032485,1.65E-05,0.22632,
-0.0014232,0.048691,0.064055,-0.00032377,0.0001117,0.22632,
-0.0013631,0.029058,0.1039,-0.00035298,0.00022852,0.22633,
0.0010459,0.0087502,0.18185,-0.00033045,0.00028086,0.22634,
-0.0044332,0.0021406,0.24587,-0.00024784,0.00024843,0.22636,
-0.015806,0.0062151,0.24865,-0.00024617,0.00021017,0.22637,
-0.016497,0.0027334,0.18711,-0.0002898,0.00015497,0.22637,
0.0043405,-0.019673,0.10209,-0.00033224,0.00013423,0.22636,
0.033936,-0.045149,0.041055,-0.00031984,0.00019193,0.22636,
0.049263,-0.047843,0.023451,-0.00027716,0.00019872,0.22635,
0.043872,-0.029081,0.034574,-0.00030661,0.00020111,0.22635,
0.029581,-0.016457,0.03599,-0.00036919,0.0002203,0.22635,
0.01783,-0.026024,-0.015114,-0.00034416,0.0002445,0.22637,
0.012754,-0.046381,-0.12449,-0.00032318,0.00023878,0.22637,
0.015766,-0.058679,-0.22689,-0.00032008,0.00018096,0.22633,
0.022725,-0.053846,-0.22833,-0.00029588,0.00014198,0.22631,
0.02241,-0.033071,-0.10515,-0.00026536,0.00019133,0.22631,
0.010517,-0.0054247,0.065227,-0.00028598,0.00017881,0.2263,
-0.00097083,0.017812,0.18481,-0.00029016,9.61E-05,0.22628,
6.40E-06,0.031632,0.20815,-0.00028157,1.94E-05,0.22626,
0.0069886,0.034982,0.11912,-0.00027931,-3.11E-05,0.22625,
0.0054368,0.024483,-0.10602,-0.0003109,-8.25E-05,0.22624,
-0.0040252,0.001954,-0.44865,-0.00033271,-8.11E-05,0.22624,
-0.0072226,-0.019061,-0.77652,-0.00035119,-8.68E-05,0.22624,
0.0010801,-0.027087,-0.89326,-0.00035191,-0.00011969,0.22621,
0.010356,-0.024566,-0.701,-0.00036824,-0.00012505,0.22619,
0.011104,-0.016947,-0.29542,-0.00030994,-0.00014007,0.22621,
0.0066559,-0.0038114,0.12826,-0.0002588,-0.00011671,0.22622,
0.0047833,0.010375,0.44125,-0.00026977,-5.69E-05,0.22621,
0.006009,0.013719,0.61664,-0.00030363,-3.90E-05,0.22623,
0.0048991,0.0054393,0.6396,-0.00028455,-3.98E-05,0.22626,
-0.0014875,0.0004205,0.48156,-0.00028265,-3.59E-05,0.22626,
-0.010513,0.0055774,0.19058,-0.00028324,-3.39E-05,0.22626,
-0.017992,0.0087498,-0.076358,-0.00032651,-4.07E-05,0.22625,
-0.022705,0.00091061,-0.18335,-0.00031507,-6.51E-05,0.22624,
-0.026596,-0.008408,-0.15494,-0.00035679,-7.16E-05,0.22622,
-0.031674,-0.0087458,-0.13194,-0.00034797,-8.30E-05,0.22619,
-0.037573,-0.0045018,-0.19463,-0.00032449,-6.46E-05,0.22617,
-0.04248,-0.0017551,-0.27881,-0.00028455,-4.52E-05,0.22616,
-0.045568,0.0040763,-0.27604,-0.00027466,-8.37E-05,0.22615,
-0.046458,0.01509,-0.16814,-0.00028026,-0.00015259,0.22615,
-0.042963,0.020739,-0.033006,-0.00029874,-0.00016201,0.22616,
-0.033725,0.014387,0.050398,-0.00029254,-3.73E-05,0.22618,
-0.02335,0.0066161,0.065923,-0.00030482,5.60E-05,0.22621,
-0.018753,0.0072327,0.046678,-0.00030863,1.65E-05,0.22621,
-0.019345,0.0058125,0.034651,-0.00032771,-8.90E-05,0.22619,
-0.018236,-0.012764,0.055931,-0.00033224,-0.00026846,0.22617,
-0.014423,-0.041401,0.11015,-0.00032532,-0.00034261,0.22616,
-0.014663,-0.056326,0.16733,-0.00031972,-0.00030947,0.22614,
-0.021047,-0.045466,0.18013,-0.00030184,-0.00026095,0.22615,
-0.026507,-0.018184,0.11994,-0.00030327,-0.00024807,0.22619,
-0.025943,0.0093389,0.016358,-0.00029993,-0.00020587,0.2262,
-0.022411,0.026905,-0.055134,-0.0002991,-0.00011539,0.22617,
-0.018974,0.030612,-0.051708,-0.00030959,-5.59E-05,0.22614,
-0.014366,0.019562,-0.013447,-0.00032914,-9.94E-05,0.22613,
-0.011041,-0.004176,0.00052655,-0.00033414,-0.0001508,0.22614,
-0.017318,-0.031,0.00099968,-0.00032616,-0.00017655,0.22611,
-0.034909,-0.041115,0.037288,-0.00032198,-0.00014806,0.2261,
-0.052244,-0.018486,0.099138,-0.00031257,-0.00012255,0.22611,
-0.056612,0.024531,0.12614,-0.00032151,-0.00013494,0.22611,
-0.047285,0.04977,0.11117,-0.00033271,-0.00016558,0.22609,
-0.032846,0.035174,0.11345,-0.00032067,-0.00017452,0.22606,
-0.021507,0.0030404,0.15257,-0.00031686,-0.00019932,0.22606,
-0.016613,-0.010239,0.16551,-0.00033092,-0.00018477,0.22607,
-0.015761,-0.00074007,0.10229,-0.00032842,-0.00015914,0.2261,
-0.012214,0.007566,0.002709,-0.00034833,-0.00013912,0.22611,
-0.0019128,0.0036518,-0.059933,-0.00034511,-0.00015163,0.22609,
0.0097053,-0.00060518,-0.063473,-0.00032747,-0.00016105,0.22607,
0.012361,0.0018355,-0.032865,-0.00032914,-0.00015843,0.22606,
0.0048917,0.0024349,0.0053868,-0.00033021,-0.0001564,0.22603,
0.00043936,-0.0020599,0.032508,-0.00033033,-0.00014734,0.22603,
0.01148,-0.0021506,0.030723,-0.00032556,-0.00013077,0.22605,
0.031709,0.0035345,-0.0035489,-0.00032628,-0.00012112,0.22603,
0.042583,0.0011097,-0.048605,-0.00033164,-0.00014591,0.22603,
0.037929,-0.015664,-0.072526,-0.00034738,-0.00016582,0.22606,
0.029375,-0.032899,-0.060311,-0.00034857,-0.00019956,0.22604,
0.026023,-0.035931,-0.028874,-0.00034451,-0.00018609,0.22603,
0.023963,-0.027855,-0.014159,-0.00033486,-0.00012362,0.22604,
0.019007,-0.021367,-0.031893,-0.0003345,-9.55E-05,0.22603,
0.014303,-0.021391,-0.051097,-0.00034285,-8.13E-05,0.22602,
0.011475,-0.022789,-0.026802,-0.0003345,-6.09E-05,0.22602,
0.0079945,-0.021561,0.035657,-0.00033748,-5.50E-05,0.22603,
0.0057869,-0.021814,0.077802,-0.00033176,-8.52E-05,0.22601,
0.0098652,-0.028093,0.066952,-0.00034904,-0.00012088,0.226,
0.017443,-0.034376,0.046884,-0.00034678,-9.74E-05,0.22602,
0.020089,-0.02989,0.076713,-0.00032079,-6.27E-05,0.22602,
0.017304,-0.016157,0.14181,-0.00032675,-9.89E-06,0.22601,
0.017783,-0.0060915,0.16807,-0.00034344,3.02E-05,0.22597,
0.026274,-0.0039574,0.11813,-0.0003413,2.36E-05,0.22597,
0.036957,-0.0015872,0.03359,-0.00034261,5.05E-05,0.22603,
0.040848,0.0016437,-0.023589,-0.00033367,3.15E-05,0.22607,
0.034438,-0.0064666,-0.038771,-0.00032783,-0.00011516,0.22605,
0.021059,-0.027919,-0.037525,-0.00033641,-0.00024939,0.22603,
0.0088756,-0.042005,-0.033237,-0.00035465,-0.00028288,0.22603,
0.0067926,-0.027302,-0.0089405,-0.00035119,-0.0001688,0.22601,
0.015461,0.011347,0.046031,-0.00033367,-4.24E-05,0.22599,
0.022696,0.045532,0.098541,-0.00032651,-3.22E-06,0.22598,
0.017,0.049958,0.091879,-0.00034153,1.01E-05,0.22597,
0.0055653,0.02365,0.012923,-0.00036526,1.35E-05,0.22594,
0.0065061,-0.011948,-0.07825,-0.00036132,1.12E-05,0.22592,
0.022125,-0.033295,-0.11241,-0.0003525,6.44E-06,0.2259,
0.035042,-0.034214,-0.094372,-0.00034797,-6.43E-05,0.22588,
0.033959,-0.023562,-0.08441,-0.00034118,-0.00010455,0.2259,
0.026935,-0.0038132,-0.10052,-0.00033748,-6.28E-05,0.22592,
0.023954,0.034075,-0.088997,-0.00034142,-3.61E-05,0.22592,
0.022311,0.082234,-0.0080756,-0.00034559,-1.26E-05,0.2259,
0.016702,0.10076,0.10275,-0.00035691,-6.91E-06,0.2259,
0.010838,0.061061,0.16784,-0.00035429,1.45E-05,0.22591,
0.010675,-0.003663,0.16329,-0.00034225,4.07E-05,0.22591,
0.014328,-0.028806,0.12518,-0.00033927,6.57E-05,0.22587,
0.015555,-0.0011589,0.084813,-0.00034285,6.06E-05,0.22585,
0.012496,0.028206,0.03696,-0.00034428,-2.50E-06,0.22587,
0.0077019,0.021351,-0.024456,-0.00034797,-4.12E-05,0.2259,
0.0020761,-0.00044122,-0.079384,-0.00033534,-5.88E-05,0.2259,
-0.006248,-0.0039481,-0.11042,-0.00032806,-3.14E-05,0.22586,
-0.016882,0.0067168,-0.12938,-0.00034499,4.77E-06,0.22586,
-0.024847,0.012492,-0.14821,-0.00035608,5.45E-05,0.22589,
-0.02577,0.015013,-0.14501,-0.00034595,9.47E-05,0.2259,
-0.022217,0.023912,-0.095328,-0.00033844,0.00012791,0.22588,
-0.021474,0.033956,-0.028198,-0.00033891,0.00015306,0.22586,
-0.026094,0.035816,-0.0067987,-0.00034189,0.00014174,0.22586,
-0.030939,0.032041,-0.045009,-0.00034535,0.00015426,0.22588,
-0.032079,0.028968,-0.084957,-0.00033855,0.00017977,0.22592,
-0.032321,0.026772,-0.075695,-0.0003345,0.00020123,0.22592,
-0.033633,0.024765,-0.033448,-0.0003202,0.00019932,0.22592,
-0.031875,0.024223,0.0022408,-0.00032759,0.00017428,0.22591,
-0.024344,0.023387,0.031378,-0.00033975,0.00017846,0.22588,
-0.014668,0.020499,0.074395,-0.00035238,0.00019598,0.22584,
-0.006203,0.019401,0.12077,-0.00034308,0.00022781,0.22583,
0.00126,0.022018,0.13923,-0.00033164,0.00022304,0.22584,
0.0066214,0.021921,0.12356,-0.00033343,0.00022423,0.22584,
0.0081985,0.015084,0.0955,-0.0003432,0.00021982,0.22584,
0.0091064,0.0078365,0.075074,-0.00035203,0.00022352,0.22582,
0.01338,0.0043198,0.073472,-0.00034106,0.00023317,0.22581,
0.018867,-0.0041692,0.098208,-0.00033116,0.00024223,0.22579,
0.021569,-0.025788,0.13727,-0.00031495,0.00023913,0.22576,
0.022756,-0.050194,0.1513,-0.00030792,0.00020897,0.22575,
0.024811,-0.055532,0.10885,-0.00032771,0.000247,0.22574,
0.025472,-0.03271,0.022568,-0.00034535,0.00030863,0.22575,
0.022408,0.0041629,-0.065065,-0.00034022,0.00036025,0.22577,
0.01789,0.030156,-0.11817,-0.00033617,0.00037897,0.22578,
0.014273,0.028373,-0.12157,-0.00033331,0.00038028,0.22578,
0.010564,0.0024843,-0.084575,-0.00033975,0.00037527,0.22579,
0.0063722,-0.024503,-0.041428,-0.00035274,0.0004034,0.22582,
0.0029641,-0.031488,-0.019772,-0.00034285,0.00044441,0.22582,
-0.00078261,-0.022405,-0.0026417,-0.00033462,0.00046182,0.22582,
-0.0064202,-0.018127,0.045757,-0.00033343,0.00048685,0.22583,
-0.01059,-0.025839,0.11254,-0.0003283,0.0004884,0.22584,
-0.0099449,-0.031956,0.1315,-0.0003345,0.00042653,0.22582,
-0.009391,-0.025576,0.058372,-0.0003376,0.00031698,0.22581,
-0.016017,-0.011218,-0.074455,-0.00034523,0.00024188,0.2258,
-0.027012,0.0037256,-0.18933,-0.00045443,0.00024402,0.22579,
-0.032621,0.017422,-0.2338,-0.00029123,0.0002768,0.22578,
-0.029019,0.025614,-0.21457,-6.32E-05,0.0003252,0.22574,
-0.021245,0.01966,-0.17605,-0.00040305,0.00038517,0.22575,
-0.015948,-0.0003219,-0.15616,-0.00049269,0.00046682,0.22578,
-0.015916,-0.02007,-0.15877,-0.0002774,0.00051272,0.22578,
-0.018947,-0.027473,-0.15978,-0.00027323,0.00054252,0.22577,
-0.020001,-0.027181,-0.13646,-0.00029767,0.00055432,0.22574,
-0.017161,-0.029023,-0.090794,-0.0003047,0.00058687,0.22573,
-0.014067,-0.030388,-0.043873,-0.00034463,0.00060511,0.22574,
-0.012718,-0.025676,-0.010273,-0.00034022,0.00060868,0.22575,
-0.008461,-0.024324,0.015825,-0.00034201,0.00064075,0.22575,
0.0012065,-0.037559,0.048634,-0.00032175,0.00065482,0.22574,
0.0080746,-0.053696,0.089069,-0.00023365,0.00062001,0.22572,
0.0024904,-0.050787,0.11534,-0.00026035,0.00058973,0.2257,
-0.012576,-0.029376,0.097701,-0.00034368,0.00058424,0.2257,
-0.025095,-0.0097045,0.032088,-0.00036824,0.00061941,0.2257,
-0.027827,-0.0013089,-0.041446,-0.00033009,0.00068164,0.22568,
-0.021995,0.0024392,-0.070264,-0.00028753,0.00067866,0.22566,
-0.012914,0.0046722,-0.044381,-0.0002979,0.00066984,0.22564,
-0.0081245,0.0021171,-0.003974,-0.00032866,0.00067449,0.22561,
-0.013357,-0.00091866,0.013462,-0.00033009,0.00067806,0.2256,
-0.02493,0.0045678,0.011852,-0.00028908,0.00068462,0.22559,
-0.031995,0.015718,0.012511,-0.00026274,0.00069296,0.22558,
-0.02909,0.020184,0.016607,-0.00030351,0.00067317,0.22559,
-0.020323,0.015729,0.011787,-0.00032592,0.00063801,0.2256,
-0.010747,0.013512,-0.0018774,-0.00032258,0.00061357,0.22558,
-0.0011802,0.019491,-0.015041,-0.00030756,0.00062633,0.22558,
0.0078943,0.025242,-0.027393,-0.000314,0.00072515,0.22559,
0.01453,0.022025,-0.042842,-0.0003432,0.00080466,0.22559,
0.018663,0.01305,-0.053842,-0.00032127,0.00081909,0.22558,
0.022163,0.0057511,-0.049659,-0.00028861,0.00081861,0.22562,
0.025096,0.0010641,-0.036089,-0.00027633,0.00085545,0.22565,
0.025851,-0.003349,-0.02854,-0.00028479,0.00081873,0.22566,
0.02487,-0.0063286,-0.027636,-0.00030649,0.00068378,0.2257,
0.024675,-0.0046812,-0.020576,-0.00029218,0.00060713,0.22571,
0.025792,0.003388,-0.0057955,-0.00027096,0.00066829,0.22573,
0.025917,0.01702,0.0053146,-0.00030553,0.00077558,0.22576,
0.024214,0.028735,0.012965,-0.00035453,0.00083542,0.22577,
0.02329,0.024779,0.031712,-0.00033069,0.0008496,0.2258,
0.024616,0.00037282,0.063797,-0.00030541,0.00084507,0.22581,
0.024946,-0.027703,0.091297,-0.00029993,0.00086021,0.22578,
0.020545,-0.036818,0.098907,-0.00028086,0.00088334,0.22576,
0.012333,-0.025844,0.087006,-0.00026309,0.0009129,0.22576,
0.0034866,-0.014326,0.064721,-0.00025475,0.00090337,0.22577,
-0.0045073,-0.015299,0.047574,-0.00027704,0.0008682,0.22577,
-0.0096605,-0.021039,0.054676,-0.00029254,0.00084209,0.22576,
-0.0081956,-0.017273,0.088642,-0.00030804,0.00082171,0.22576,
-0.00031502,-0.0026352,0.12182,-0.00035238,0.00079215,0.22576,
0.0069349,0.01044,0.11642,-0.00034547,0.00078893,0.22577,
0.0067041,0.011513,0.059789,-0.0003078,0.00079203,0.2258,
-0.00084689,0.0036668,-0.021176,-0.00028574,0.00081468,0.22583,
-0.01024,-0.0029972,-0.079683,-0.00026214,0.00084996,0.22583,
-0.015801,-0.0038234,-0.089533,-0.00024307,0.00090897,0.22584,
-0.015098,0.00013774,-0.067733,-0.00024366,0.00096107,0.22583,
-0.010109,0.0085868,-0.047655,-0.00024569,0.00099146,0.22583,
-0.0045241,0.02058,-0.03561,-0.00028002,0.0010183,0.22581,
0.00013442,0.030686,-0.014693,-0.00031149,0.0010483,0.22583,
0.0031469,0.033493,0.013409,-0.00035226,0.0010384,0.22585,
0.0016197,0.02929,0.021386,-0.00039971,0.001012,0.22585,
-0.005456,0.022123,-0.0019983,-0.00036728,0.0010161,0.22586,
-0.011976,0.016185,-0.029075,-0.00026977,0.0010369,0.22587,
-0.010642,0.014671,-0.025346,-0.00019622,0.001032,0.22586,
-0.0037398,0.016361,0.011151,-0.00020516,0.0010257,0.22585,
-0.00068386,0.013466,0.052876,-0.00024462,0.0010182,0.22585,
-0.0039697,-0.00021205,0.073402,-0.00026941,0.001008,0.22585,
-0.0058114,-0.018234,0.065082,-0.00026715,0.0010241,0.22582,
-0.0016493,-0.025689,0.034826,-0.0003047,0.0010364,0.22582,
0.0021281,-0.017018,-0.0044104,-0.00040317,0.0010489,0.22583,
-0.00049875,-0.003509,-0.037652,-0.0004406,0.001074,0.22583,
-0.0047899,0.0013615,-0.054473,-0.00037062,0.0010895,0.22582,
-0.0036876,-0.0015475,-0.058044,-0.00029337,0.0011189,0.22581,
0.00059968,-0.0017033,-0.061184,-0.00021696,0.0011247,0.22582,
0.0021518,0.0042285,-0.066392,-0.00018978,0.0011204,0.22583,
0.0026865,0.0088439,-0.056955,-0.0002538,0.0011097,0.22583,
0.0076213,0.0061544,-0.019825,-0.00030088,0.0011263,0.22582,
0.015073,-0.00077419,0.027327,-0.00024688,0.0011532,0.22581,
0.018913,-0.0055611,0.049462,-0.0002619,0.0011755,0.2258,
0.019236,-0.006395,0.037575,-0.00040436,0.0011644,0.22579,
0.019835,-0.0062373,0.021048,-0.00045455,0.0011466,0.22578,
0.019189,-0.0073461,0.028564,-0.00033438,0.0011568,0.22577,
0.013926,-0.0070404,0.053752,-0.00027919,0.0011804,0.22574,
0.0072548,-0.00096869,0.070848,-0.0002979,0.0012107,0.22572,
0.0048657,0.007891,0.067189,-0.0003202,0.001225,0.2257,
0.0063557,0.0085661,0.045735,-0.00027764,0.0012443,0.2257,
0.0081295,-0.0037517,0.011392,-0.00021863,0.0012516,0.22571,
0.010165,-0.017963,-0.027595,-0.00017655,0.0011795,0.22572,
0.013073,-0.01841,-0.056062,-0.0001936,0.0011073,0.22574,
0.013329,0.00065193,-0.066428,-0.00035501,0.0011431,0.22575,
0.0089475,0.037059,-0.069631,-0.00054622,0.0012587,0.22574,
0.0060413,0.081737,-0.078979,-0.00046003,0.0013146,0.22572,
0.01147,0.10801,-0.089906,-0.00025189,0.0013391,0.22572,
0.020998,0.084618,-0.08706,-0.00020313,0.0013493,0.22572,
0.023136,0.020534,-0.065558,-0.00027549,0.0013341,0.22573,
0.014569,-0.028423,-0.034435,-0.00037146,0.0013242,0.22574,
0.0042206,-0.025007,-0.0029848,-0.00039244,0.0013202,0.2257,
0.0010229,0.0023482,0.02612,-0.00028741,0.0013269,0.22566,
0.0040206,0.0075943,0.050913,-0.00020134,0.0013268,0.22564,
0.0064952,-0.0057835,0.06582,-0.00027132,0.0013502,0.22564,
0.0052058,-0.0034188,0.06611,-0.00035155,0.001364,0.22565,
0.0023524,0.017319,0.053512,-0.00035954,0.0013684,0.22566,
-0.00013344,0.026736,0.036204,-0.00034297,0.0013953,0.22567,
-0.0044149,0.014759,0.023621,-0.00031567,0.0013958,0.22565,
-0.011591,0.0050165,0.018807,-0.00032437,0.0013931,0.22564,
-0.015408,0.01641,0.014585,-0.00032771,0.0014076,0.22564,
-0.0092015,0.038923,0.0014349,-0.00030482,0.0014434,0.22562,
0.0012863,0.053341,-0.018043,-0.00028801,0.0014788,0.22559,
0.003705,0.055045,-0.027034,-0.00029111,0.0014806,0.22557,
-0.0007457,0.049664,-0.012587,-0.00031459,0.0014756,0.22555,
0.0022669,0.039024,0.016074,-0.00037503,0.0015059,0.22553,
0.015707,0.022616,0.034946,-0.00039244,0.0015254,0.22554,
0.023529,0.0055134,0.032191,-0.00033557,0.0015593,0.22554,
0.014553,-0.0059796,0.018079,-0.00030482,0.001599,0.22554,
-0.0011109,-0.01318,0.0049729,-0.00032032,0.0016499,0.22556,
-0.0082591,-0.020554,-0.0077989,-0.00034165,0.0017111,0.22556,
-0.0064856,-0.02516,-0.020793,-0.00034773,0.0017438,0.22554,
-0.0038624,-0.021019,-0.023945,-0.00031304,0.0017236,0.22552,
-0.00063893,-0.012985,-0.013532,-0.00029492,0.0016577,0.22548,
0.0082765,-0.012853,-0.0044019,-0.00033236,0.001611,0.22545,
0.019477,-0.019313,-0.010676,-0.00035703,0.0015646,0.22544,
0.023036,-0.017291,-0.02744,-0.00034559,0.0015061,0.22541,
0.018057,-0.0023418,-0.042722,-0.00031245,0.0014756,0.2254,
0.014194,0.011858,-0.052037,-0.00030684,0.0014399,0.22539,
0.016597,0.016862,-0.049905,-0.00035107,0.0014316,0.22539,
0.020473,0.020057,-0.024746,-0.00035155,0.001408,0.22537,
0.021122,0.024607,0.021817,-0.00035131,0.0013709,0.22536,
0.018823,0.021727,0.063531,-0.00032711,0.0013816,0.22533,
0.01413,0.011333,0.074444,-0.00029707,0.0014192,0.2253,
0.0074352,0.0067679,0.058954,-0.00030684,0.0014471,0.2253,
0.0017046,0.010926,0.044115,-0.00032234,0.0014547,0.22528,
-0.0010694,0.010476,0.04666,-0.00033224,0.0014465,0.22528,
-0.0033216,0.0003306,0.058822,-0.000319,0.0014176,0.22529,
-0.0076903,-0.0078147,0.063876,-0.00030637,0.0014036,0.22529,
-0.013694,-0.0069186,0.054939,-0.00031531,0.0013982,0.22527,
-0.02084,-0.0047744,0.036699,-0.00033665,0.001411,0.22524,
-0.029162,-0.0068086,0.0162,-0.00036943,0.0014205,0.22523,
-0.034673,-0.0056016,-0.0013117,-0.00033724,0.0014213,0.22524,
-0.031079,0.0048225,-0.0090764,-0.00030673,0.0014352,0.22525,
-0.019984,0.017046,-0.0012309,-0.00031495,0.0014664,0.22524,
-0.013881,0.020943,0.016351,-0.00031328,0.0014837,0.22524,
-0.022752,0.016575,0.02649,-0.00030196,0.0015037,0.22525,
-0.040164,0.0083069,0.020455,-0.0002898,0.0015149,0.22526,
-0.049075,-0.004482,0.010342,-0.00029826,0.001485,0.22529,
-0.040656,-0.021838,0.012752,-0.00033069,0.0014735,0.2253,
-0.021671,-0.037365,0.026249,-0.00038278,0.0014867,0.22526,
-0.0046356,-0.046767,0.035571,-0.0003798,0.0015017,0.22524,
0.0023388,-0.053384,0.034511,-0.00034535,0.0015377,0.22523,
-0.002886,-0.058015,0.032418,-0.00030875,0.0015693,0.22519,
-0.016135,-0.054221,0.037234,-0.00027776,0.0015879,0.22516,
-0.025889,-0.041813,0.043724,-0.00026953,0.0015745,0.22516,
-0.019902,-0.033887,0.04263,-0.00025284,0.0015377,0.22518,
0.0017286,-0.041363,0.031894,-0.00024366,0.0015182,0.22517,
0.022843,-0.05897,0.014153,-0.00028121,0.0015361,0.22513,
0.026117,-0.073615,-0.0079224,-0.00040603,0.0015482,0.22507,
0.012071,-0.080281,-0.027611,-0.00055671,0.0015727,0.22505,
-0.0017862,-0.08501,-0.032524,-0.00044608,0.0016038,0.22504,
-0.002321,-0.095127,-0.016422,-0.00024784,0.0016594,0.22503,
0.0049436,-0.10773,0.0071894,-0.00018728,0.0017433,0.22505,
0.0066832,-0.10978,0.012321,-0.00023746,0.0017781,0.22505,
0.00016044,-0.09416,-0.011177,-0.00027394,0.0017722,0.22504,
-0.0063618,-0.071499,-0.043595,-0.00022674,0.0017509,0.22503,
-0.0071506,-0.057228,-0.061594,-0.00015068,0.0016943,0.22502,
-0.0042325,-0.051106,-0.069171,-0.0004077,0.0016624,0.225,
-0.00062899,-0.040396,-0.082471,-0.00072467,0.0016478,0.22498,
0.0029045,-0.020432,-0.09402,-0.00039208,0.0016145,0.22497,
0.0042352,-0.0010581,-0.082398,-4.77E-06,0.0015612,0.22496,
0.0012808,0.0073786,-0.05314,-0.00024664,0.0015379,0.22495,
-0.003224,0.0061193,-0.036328,-0.00057209,0.0015615,0.22494,
-0.0068862,0.004143,-0.042028,-0.00044835,0.0016092,0.22495,
-0.014887,0.0073316,-0.050391,-0.00017989,0.0016074,0.22496,
-0.031552,0.014668,-0.049962,-0.00020146,0.0015769,0.22493,
-0.048069,0.022409,-0.052721,-0.00029933,0.0015693,0.22491,
-0.050193,0.027085,-0.061147,-0.00019431,0.0015703,0.22489,
-0.037154,0.025507,-0.052096,-8.21E-05,0.0015672,0.22488,
-0.024442,0.018326,-0.01199,-0.00037897,0.0015907,0.22488,
-0.026855,0.013213,0.034587,-0.00070941,0.0016136,0.22489,
-0.042697,0.016963,0.050977,-0.00039768,0.0016059,0.22489,
-0.057272,0.025009,0.028948,-7.30E-05,0.001615,0.22489,
-0.061476,0.027383,-0.010193,-0.00031388,0.001593,0.22488,
-0.061122,0.024353,-0.040629,-0.00050807,0.0015603,0.22486,
-0.063533,0.025508,-0.045982,-0.00027728,0.0015841,0.22485,
-0.062673,0.031476,-0.022599,-3.62E-05,0.0016245,0.22483,
-0.047772,0.028246,0.014931,-0.00015187,0.0016608,0.22481,
-0.022334,0.0065415,0.03742,-0.00031066,0.0016909,0.22482,
-0.002984,-0.021995,0.024257,-0.00046623,0.0017338,0.22482,
0.0004797,-0.037323,-0.015195,-0.00061405,0.001801,0.22485,
-0.0056953,-0.034283,-0.049917,-0.00026464,0.0018445,0.22483,
-0.012287,-0.0242,-0.057088,-6.08E-05,0.0018177,0.22483,
-0.020053,-0.017517,-0.03738,-0.0004195,0.0017947,0.22484,
-0.030876,-0.014715,-0.003705,-0.00053048,0.0017941,0.22486,
-0.032226,-0.012341,0.031546,-0.00025284,0.0017622,0.22488,
-0.008348,-0.0076411,0.056911,-0.00017595,0.0016973,0.22488,
0.029438,0.0046384,0.065566,-0.00035214,0.001658,0.22488,
0.045872,0.030079,0.063903,-0.00031745,0.0016665,0.22487,
0.029286,0.060829,0.063883,-4.40E-05,0.0016657,0.22486,
0.013513,0.071334,0.064717,-5.75E-05,0.0016297,0.22486,
0.030449,0.044926,0.055837,-0.00060892,0.0015422,0.22486,
0.062557,0.0047497,0.038725,-0.00076401,0.0014677,0.22485,
0.071388,-0.0031742,0.029483,-0.00010645,0.0014966,0.22483,
0.055114,0.034642,0.036119,-3.92E-05,0.001564,0.22485,
0.044759,0.078879,0.047992,-0.00056791,0.0015683,0.22487,
0.054411,0.081233,0.052487,-0.00048578,0.0015427,0.22488,
0.066182,0.036042,0.049111,-9.83E-05,0.0015047,0.22486,
0.060719,-0.016173,0.04278,-0.00017822,0.001472,0.22481,
0.039868,-0.029389,0.036356,-0.00037253,0.0014503,0.22475,
0.019803,0.0029183,0.033425,-0.00022244,0.0014281,0.22472,
0.014021,0.04243,0.034512,-8.83E-05,0.0014372,0.22469,
0.020953,0.050871,0.029249,-0.00046515,0.0014889,0.22464,
0.024488,0.031503,0.0090363,-0.00069094,0.0015472,0.22463,
0.01204,0.012982,-0.012535,-0.00018966,0.0015851,0.22466,
-0.0098472,0.0078927,-0.011482,-7.74E-05,0.001616,0.22469,
-0.025473,0.0092826,0.013071,-0.00051033,0.0016124,0.22471,
-0.029224,0.012595,0.036365,-0.0004549,0.0015966,0.22472,
-0.025534,0.01656,0.042101,-0.00015569,0.0015725,0.22475,
-0.018749,0.015905,0.042478,-0.0002768,0.0015399,0.22476,
-0.013518,0.012923,0.057817,-0.000368,0.001516,0.22476,
-0.015535,0.019656,0.08603,-0.00015569,0.0014914,0.22477,
-0.021819,0.033034,0.099714,-7.40E-05,0.0014679,0.2248,
-0.019892,0.030632,0.07247,-0.00040269,0.0014924,0.22481,
-0.0051109,0.007119,0.0061189,-0.00074756,0.0014846,0.2248,
0.01101,-0.011154,-0.068491,-0.00032377,0.0014708,0.2248,
0.016851,-0.0054792,-0.11753,-4.05E-06,0.001453,0.22478,
0.015051,0.0074549,-0.13066,-0.00046563,0.001477,0.22478,
0.013883,0.0055911,-0.12267,-0.0005151,0.0015128,0.22479,
0.013149,-0.0045444,-0.112,-0.00014269,0.0015471,0.22478,
0.0066527,-0.0029504,-0.10147,-0.00023735,0.0015713,0.22475,
-0.0064851,0.013028,-0.081938,-0.00046337,0.0015451,0.22475,
-0.020158,0.029657,-0.051506,-0.0002743,0.0015674,0.22474,
-0.02875,0.036103,-0.023832,-0.00011432,0.0016221,0.22472,
-0.03008,0.030144,-0.015303,-0.00025225,0.0016193,0.2247,
-0.021555,0.013538,-0.028096,-0.00035763,0.0016091,0.22469,
-0.0010726,-0.0074046,-0.047689,-0.00051773,0.001583,0.22469,
0.024875,-0.021175,-0.056311,-0.00046599,0.0015787,0.2247,
0.04086,-0.020804,-0.050769,-0.00021291,0.0015981,0.22467,
0.037175,-0.013426,-0.045295,-0.00033128,0.0015838,0.22464,
0.021677,-0.011113,-0.050367,-0.00043797,0.0015675,0.22464,
0.010711,-0.012426,-0.055085,-0.00026667,0.0015515,0.22465,
0.010067,-0.0054308,-0.047721,-0.00025117,0.0015314,0.22468,
0.011065,0.0094657,-0.048133,-0.00031483,0.0015061,0.22467,
0.0053133,0.016162,-0.08808,-0.00025642,0.0014968,0.22463,
-0.0030638,0.0074935,-0.15169,-0.00030148,0.0015068,0.2246,
-0.0037424,-0.0036697,-0.17179,-0.00038362,0.0015062,0.2246,
0.0046625,-0.004825,-0.10906,-0.0003978,0.0014942,0.22458,
0.012379,0.00023376,-0.0060824,-0.00047731,0.0014923,0.22459,
0.012473,0.0030179,0.066313,-0.00036657,0.0014971,0.2246,
0.0098491,0.0041531,0.091622,-0.00028062,0.0014987,0.22462,
0.011656,0.0077338,0.10314,-0.00030422,0.0014977,0.22461,
0.015347,0.011781,0.11934,-0.00030589,0.0014931,0.22461,
0.013898,0.012008,0.12598,-0.00030518,0.0014781,0.22461,
0.0086359,0.0093863,0.11219,-0.00029707,0.0014458,0.2246,
0.0080849,0.007597,0.081664,-0.00022542,0.0014142,0.22459,
0.014833,0.0059773,0.028566,-0.00020516,0.0013851,0.22457,
0.021054,0.00067759,-0.058125,-0.00050128,0.0013748,0.22456,
0.019105,-0.007771,-0.15792,-0.00071776,0.00138,0.22453,
0.011847,-0.012851,-0.21969,-0.00014269,0.0014013,0.22452,
0.0088989,-0.0098013,-0.21154,-0.00021207,0.00142,0.22451,
0.014249,-0.0022359,-0.14664,-0.00060999,0.0014458,0.22449,
0.021625,0.0017108,-0.056263,-0.00032437,0.0014375,0.22446,
0.023862,-0.0010303,0.034881,-0.00017369,0.0014336,0.22439,
0.023148,-0.0052567,0.10436,-0.00041831,0.0014381,0.22432,
0.026803,-0.0038596,0.13691,-0.00037158,0.0014485,0.22425,
0.034836,0.0041224,0.14343,-0.00015521,0.0014548,0.2242,
0.039499,0.011091,0.15043,-0.00017595,0.001467,0.22411,
0.038088,0.0070132,0.164,-0.00041139,0.0014762,0.22403,
0.03728,-0.0077053,0.16413,-0.00071311,0.0014738,0.22396,
0.041195,-0.016897,0.13711,-0.00032735,0.0014467,0.22389,
0.043508,-0.0053499,0.093251,-0.00014174,0.0014733,0.22381,
0.036647,0.019647,0.049248,-0.00056803,0.0015167,0.22372,
0.022457,0.035552,0.012031,-0.00034249,0.0015188,0.22365,
0.0092148,0.033569,-0.013394,-0.00018573,0.0015048,0.22361,
0.0028398,0.026687,-0.01829,-0.0004369,0.0014876,0.22357,
0.0035062,0.027167,-0.0044477,-0.00029433,0.0014923,0.22356,
0.0069107,0.03002,0.0091172,-0.00018656,0.001501,0.22362,
0.0079112,0.02461,0.0074829,-0.00031292,0.0015234,0.22369,
0.0055613,0.012838,-0.0018737,-0.00041616,0.0015711,0.22382,
0.0034835,0.0061449,-0.0045488,-0.00057185,0.0015672,0.22402,
0.0032268,0.0068467,-0.0018565,-0.00037515,0.001531,0.22427,
0.00022184,0.0029855,-0.0037319,-0.00020039,0.0015299,0.22449,
-0.0097413,-0.013568,-0.0088463,-0.00046062,0.0015239,0.22469,
-0.021122,-0.032722,-0.0056841,-0.00040162,0.0015131,0.22489,
-0.020679,-0.038601,0.012589,-0.00025868,0.0015278,0.22504,
-0.0029453,-0.029502,0.041184,-0.00035369,0.0015222,0.22522,
0.01844,-0.01523,0.06414,-0.00035393,0.0015012,0.22541,
0.022764,-0.0014828,0.060347,-0.00028539,0.0014721,0.22559,
0.0077215,0.010345,0.020145,-0.00024462,0.0014428,0.22577,
-0.0069204,0.013985,-0.042041,-0.000278,0.0014298,0.22599,
-0.0063146,0.0046363,-0.098884,-0.00046659,0.0014106,0.22623,
0.00022477,-0.0080734,-0.13231,-0.00057411,0.0014044,0.22647,
-0.0043908,-0.0085738,-0.14013,-0.00025856,0.0014037,0.22668,
-0.020022,0.0028531,-0.12834,-0.00029337,0.0014217,0.22687,
-0.031754,0.0092959,-0.10584,-0.0005089,0.00144,0.2271,
-0.030313,-0.00022658,-0.082458,-0.00019979,0.0014428,0.22734,
-0.019646,-0.017472,-0.064533,-0.00022614,0.0014201,0.22763,
-0.0080112,-0.026081,-0.052166,-0.00040436,0.0013896,0.22795,
-2.00E-05,-0.017787,-0.04258,-0.00023878,0.0013722,0.2283,
0.0040173,0.0035118,-0.034688,-0.00015461,0.0013486,0.22872,
0.0064729,0.025587,-0.029311,-0.00036919,0.0013385,0.22916,
0.0085345,0.034555,-0.025176,-0.0006485,0.0013603,0.22955,
0.0057306,0.025458,-0.014828,-0.00033808,0.0013827,0.22986,
-0.0069391,0.007584,0.012316,-0.00014436,0.0014058,0.23017,
-0.023587,-0.005914,0.056458,-0.0005157,0.0014342,0.23048,
-0.03103,-0.012457,0.096954,-0.00038791,0.0014437,0.2308,
-0.026422,-0.019418,0.1059,-0.00018191,0.0014399,0.23117,
-0.019513,-0.031464,0.079037,-0.00037277,0.0014431,0.23153,
-0.016191,-0.043558,0.043759,-0.00035858,0.0014278,0.23183,
-0.013645,-0.046312,0.026606,-0.0002178,0.0014127,0.23216,
-0.011418,-0.035483,0.023704,-0.00023222,0.0013845,0.23247,
-0.012244,-0.015476,0.016908,-0.00023282,0.0013582,0.23276,
-0.013051,0.0042253,0.0049506,-0.00035989,0.0013546,0.23307,
-0.0085511,0.013724,-0.0020884,-0.00059259,0.0013721,0.23336,
-0.0014027,0.0072597,-0.006283,-0.0003475,0.0013782,0.23364,
0.0018387,-0.010595,-0.015465,-0.00024128,0.0013705,0.23397,
0.00099422,-0.025405,-0.023869,-0.00044978,0.0013655,0.23431,
0.00026987,-0.026553,-0.023393,-0.00030291,0.0013394,0.23467,
0.00038015,-0.018647,-0.024134,-0.0001868,0.0013124,0.23506,
-0.0011153,-0.013723,-0.03832,-0.00032508,0.0013105,0.23544,
-0.0049486,-0.015593,-0.051412,-0.00034106,0.0013257,0.23579,
-0.0095122,-0.017657,-0.035844,-0.00021088,0.0013387,0.23614,
-0.013515,-0.013432,0.0076771,-0.00020289,0.0013694,0.23649,
-0.017709,-0.0042862,0.045577,-0.00046158,0.0014086,0.23688,
-0.023208,0.0024029,0.050835,-0.00057352,0.0014251,0.23728,
-0.027238,0.00035579,0.029276,-0.00023961,0.0014304,0.23767,
-0.023949,-0.0093427,0.0038147,-0.00029051,0.0014417,0.238,
-0.013213,-0.017485,-0.01066,-0.00044382,0.0014429,0.23824,
-0.0038721,-0.014592,-0.01072,-0.00022078,0.0014595,0.23842,
-0.0026675,-0.0025392,0.0029361,-0.00022268,0.0014846,0.2386,
-0.0055078,0.0050076,0.02522,-0.00035667,0.0014957,0.23875,
-0.0059589,-0.0014686,0.045582,-0.00029826,0.0014981,0.23873,
-0.0056906,-0.015193,0.057156,-0.00018203,0.0014807,0.23852,
-0.0093022,-0.022593,0.064888,-0.00019217,0.0015007,0.23812,
-0.015422,-0.019997,0.077599,-0.00044417,0.0015326,0.23748,
-0.020471,-0.015443,0.094569,-0.00060928,0.0015415,0.23687,
-0.025101,-0.018202,0.10636,-0.0002327,0.0015603,0.23642,
-0.029623,-0.029313,0.10533,-0.00025129,0.0015531,0.23599,
-0.029807,-0.039395,0.090471,-0.00045419,0.0015051,0.23551,
-0.025388,-0.037637,0.068146,-0.0002712,0.0014517,0.23506,
-0.025232,-0.025592,0.05064,-0.00018978,0.0014222,0.23458,
-0.034331,-0.016046,0.044485,-0.00031769,0.0014195,0.23407,
-0.043544,-0.015766,0.039902,-0.0002954,0.0014052,0.23357,
-0.042919,-0.018238,0.024858,-0.00019991,0.0013678,0.23313,
-0.036564,-0.014909,0.0070141,-0.00023866,0.0013446,0.23277,
-0.033126,-0.0021848,0.0036412,-0.00047553,0.0013335,0.23245,
-0.031313,0.022076,0.011934,-0.00048065,0.0013403,0.23216,
-0.026612,0.053492,0.010965,-0.00025415,0.0013466,0.23191,
-0.022078,0.073418,-0.0062174,-0.00029492,0.0013525,0.23169,
-0.020941,0.064669,-0.024533,-0.00036931,0.0013905,0.23145,
-0.018628,0.035668,-0.033495,-0.00028014,0.0014392,0.23124,
-0.011863,0.012353,-0.039678,-0.00022411,0.0014617,0.23099,
-0.0054989,0.007231,-0.047197,-0.00028813,0.0014637,0.23075,
-0.00332,0.011923,-0.046671,-0.00028443,0.0014572,0.23049,
-0.0022667,0.016246,-0.032843,-0.00018597,0.0014547,0.23022,
-0.00026638,0.016912,-0.017502,-0.00024545,0.0014541,0.22987,
-0.00027307,0.010251,-0.014635,-0.00057244,0.001442,0.22942,
-0.0038823,-0.004905,-0.02158,-0.0004847,0.0014441,0.22896,
-0.0081715,-0.017276,-0.023819,-0.00016773,0.0014375,0.22848,
-0.0098227,-0.013629,-0.015837,-0.0003612,0.0014493,0.22808,
-0.0079771,-0.00031993,-0.0097339,-0.00045455,0.0014404,0.22783,
-0.0037012,0.0025189,-0.018831,-0.00022388,0.0014355,0.22763,
0.0010779,-0.0097182,-0.036781,-0.00015533,0.0014296,0.2274,
0.0054028,-0.019385,-0.041814,-0.00033069,0.0014319,0.22717,
0.0099979,-0.013253,-0.022939,-0.00031841,0.0014387,0.22696,
0.014187,-0.00036592,0.0047275,-0.00015557,0.0014372,0.22677,
0.014819,0.0031531,0.013876,-0.00026345,0.0014408,0.22659,
0.01198,-0.0054744,-0.0066973,-0.00058973,0.0014635,0.2264,
0.011293,-0.017338,-0.039366,-0.00045669,0.001465,0.2262,
0.015096,-0.024002,-0.057384,-0.00015593,0.001441,0.22603,
0.016879,-0.022111,-0.054934,-0.0002979,0.0014397,0.22585,
0.011087,-0.013864,-0.044673,-0.00043106,0.0014349,0.22567,
0.0024577,-0.0078522,-0.02774,-0.0002625,0.0013835,0.22552,
-0.0014021,-0.013587,0.0091775,-0.0002079,0.0013237,0.22535,
-0.00063075,-0.02996,0.062246,-0.00029027,0.0013057,0.22518,
0.00084105,-0.041575,0.10404,-0.00026989,0.0013508,0.22501,
0.0037273,-0.03332,0.11789,-0.00022626,0.001382,0.22489,
0.0098608,-0.010978,0.11373,-0.00031006,0.0014088,0.22477,
0.015251,0.0016169,0.10442,-0.00043225,0.0014348,0.22469,
0.015159,-0.0069815,0.092048,-0.0004288,0.0014423,0.2246,
0.01261,-0.019753,0.080822,-0.00033474,0.0014237,0.22452,
